137131.0
136813.0
136353.0
135781.0
135138.0
134476.0
133839.0
133259.0
132754.0
132328.0
131977.0
131695.0
131477.0
131322.0
131230.0
131201.0
131233.0
131312.0
131425.0
131557.0
131695.0
131827.0
131955.0
132083.0
132215.0
132357.0
132504.0
132652.0
132791.0
132911.0
133011.0
133089.0
133156.0
133217.0
133278.0
133343.0
133409.0
133464.0
133504.0
133522.0
133518.0
133499.0
133473.0
133448.0
133423.0
133396.0
133365.0
133323.0
133274.0
133224.0
133180.0
133149.0
133132.0
133121.0
133110.0
133082.0
133036.0
132981.0
132929.0
132894.0
132886.0
132891.0
132892.0
132870.0
132812.0
132731.0
132657.0
132624.0
132654.0
132746.0
132867.0
132971.0
133025.0
133030.0
133031.0
133104.0
133318.0
133705.0
134226.0
134784.0
135259.0
135550.0
135607.0
135450.0
135141.0
134744.0
134293.0
133784.0
133197.0
132544.0
131890.0
131346.0
131028.0
130982.0
131145.0
131357.0
131429.0
131238.0
130806.0
130312.0
130002.0
130054.0
130460.0
130999.0
131331.0
131193.0
130597.0
129936.0
129882.0
131126.0
143358.0
147574.0
149759.0
149101.0
145612.0
129414.0
126703.0
126428.0
128066.0
130561.0
132778.0
133935.0
133839.0
132848.0
131618.0
130774.0
130633.0
131124.0
131891.0
132511.0
132706.0
132452.0
131951.0
131496.0
131308.0
131443.0
131782.0
132120.0
131697.0
131804.0
132056.0
132346.0
132563.0
132655.0
132593.0
132597.0
132690.0
132859.0
133048.0
133194.0
133249.0
133267.0
133357.0
133519.0
133725.0
133941.0
134143.0
134326.0
134516.0
135284.0
135594.0
135892.0
136157.0
136384.0
136589.0
136785.0
136983.0
137171.0
137323.0
137390.0
137329.0
137115.0
136745.0
136238.0
135636.0
134985.0
134332.0
133713.0
133153.0
132666.0
132257.0
131925.0
131668.0
131484.0
131370.0
131320.0
131323.0
131372.0
131456.0
131565.0
131691.0
131825.0
131962.0
132098.0
132466.0
132577.0
132684.0
132792.0
132900.0
133006.0
133111.0
133209.0
133296.0
133370.0
133426.0
133463.0
133485.0
133492.0
133487.0
133472.0
133451.0
133425.0
133396.0
133362.0
133329.0
133247.0
133233.0
133224.0
133216.0
133201.0
133178.0
133152.0
133123.0
133101.0
133084.0
133074.0
133065.0
133044.0
133007.0
132955.0
132903.0
132929.0
132948.0
132926.0
132856.0
132756.0
132670.0
132641.0
132695.0
132820.0
132978.0
133113.0
133188.0
133205.0
133216.0
133302.0
133532.0
133925.0
134436.0
134957.0
135366.0
135572.0
135545.0
135320.0
134965.0
134541.0
134070.0
133541.0
132938.0
132285.0
131660.0
131181.0
131165.0
131346.0
131338.0
131061.0
130593.0
130144.0
129950.0
130138.0
130619.0
131107.0
131263.0
130900.0
130163.0
129572.0
129869.0
131693.0
135250.0
140082.0
145113.0
148950.0
150363.0
148774.0
144487.0
138639.0
132809.0
128466.0
126476.0
126861.0
128874.0
131371.0
133280.0
133993.0
133515.0
132345.0
131171.0
130536.0
130626.0
131253.0
132007.0
132486.0
132497.0
132109.0
131580.0
131208.0
131164.0
131855.0
132202.0
132327.0
132215.0
131974.0
131767.0
131719.0
131865.0
132138.0
132425.0
132628.0
132710.0
132711.0
132697.0
132740.0
132856.0
133020.0
133173.0
133270.0
133300.0
133292.0
133299.0
133370.0
133520.0
133734.0
133967.0
134186.0
134369.0
134526.0
134878.0
135114.0
135386.0
135668.0
135934.0
136164.0
136358.0
136530.0
136699.0
136875.0
137045.0
137181.0
137237.0
137171.0
136958.0
136593.0
136096.0
135499.0
134848.0
134191.0
133569.0
133012.0
132536.0
132146.0
131837.0
131602.0
131427.0
131206.0
131226.0
131289.0
131395.0
131533.0
131694.0
132175.0
132310.0
132429.0
132539.0
132645.0
132749.0
132851.0
132950.0
133043.0
133132.0
133218.0
133304.0
133390.0
133473.0
133549.0
133611.0
133647.0
133653.0
133628.0
133579.0
133513.0
133443.0
133379.0
133328.0
133250.0
133232.0
133210.0
133180.0
133153.0
133126.0
133108.0
133098.0
133094.0
133088.0
133072.0
133040.0
132996.0
132908.0
132919.0
132936.0
132939.0
132911.0
132851.0
132777.0
132723.0
132720.0
132783.0
133035.0
132994.0
133041.0
133239.0
134086.0
134584.0
134985.0
135208.0
135234.0
135088.0
134831.0
134500.0
134096.0
133593.0
132974.0
132273.0
131588.0
131054.0
130791.0
130819.0
131041.0
131265.0
131297.0
131046.0
129916.0
130095.0
130586.0
131109.0
131314.0
131003.0
130308.0
129736.0
130025.0
131830.0
135377.0
140231.0
145328.0
149270.0
150803.0
149297.0
145019.0
139078.0
133050.0
128442.0
126184.0
126366.0
128293.0
130840.0
132910.0
133840.0
133566.0
132530.0
131398.0
130726.0
130742.0
131306.0
132040.0
132554.0
132635.0
132319.0
131831.0
131448.0
131350.0
131545.0
131893.0
132200.0
132320.0
132231.0
132027.0
131851.0
131820.0
132500.0
132687.0
132753.0
132731.0
132690.0
132704.0
132804.0
132968.0
133363.0
133368.0
133405.0
133505.0
133666.0
133870.0
134089.0
134301.0
134508.0
134716.0
134939.0
135182.0
135438.0
136145.0
136342.0
136530.0
136722.0
136919.0
137102.0
137239.0
137293.0
137222.0
137005.0
136641.0
136148.0
135564.0
134934.0
133183.0
132725.0
132342.0
132028.0
131775.0
131583.0
131452.0
131383.0
131373.0
131413.0
131588.0
131698.0
131811.0
131928.0
132052.0
132190.0
132346.0
132507.0
132669.0
132814.0
132935.0
133030.0
133103.0
133166.0
133231.0
133305.0
133388.0
133469.0
133538.0
133583.0
133599.0
133592.0
133569.0
133543.0
133521.0
133486.0
133464.0
133431.0
133390.0
133344.0
133303.0
133270.0
133249.0
133235.0
133221.0
133203.0
133105.0
133098.0
133082.0
133050.0
133007.0
132967.0
132944.0
132946.0
132965.0
132984.0
132977.0
132926.0
132835.0
132730.0
132659.0
132654.0
132733.0
132875.0
133034.0
133161.0
133230.0
133257.0
133299.0
133428.0
133696.0
134098.0
134578.0
135033.0
135368.0
135518.0
135478.0
135278.0
134964.0
134555.0
134051.0
133439.0
132730.0
131997.0
131362.0
130953.0
130838.0
130977.0
131215.0
130868.0
130378.0
130016.0
129983.0
130316.0
130838.0
131218.0
131169.0
130645.0
129968.0
129777.0
130792.0
133472.0
137713.0
142748.0
147309.0
150040.0
149987.0
146987.0
141770.0
135738.0
130473.0
127202.0
126396.0
127684.0
130081.0
132422.0
133821.0
133956.0
133090.0
131847.0
130886.0
130601.0
130996.0
131756.0
132447.0
132116.0
131643.0
131412.0
131515.0
131856.0
132235.0
132454.0
132426.0
132202.0
131930.0
131804.0
132017.0
132306.0
132546.0
132659.0
132642.0
132560.0
132503.0
132535.0
132669.0
132863.0
133051.0
133186.0
133530.0
133732.0
133962.0
134194.0
134621.0
134839.0
135077.0
135342.0
135623.0
135900.0
136160.0
136391.0
136601.0
136796.0
136983.0
137160.0
137303.0
137382.0
137356.0
137197.0
136892.0
133978.0
133389.0
132867.0
132421.0
131530.0
131374.0
131285.0
131260.0
131289.0
131362.0
131467.0
131594.0
131736.0
131884.0
132034.0
132463.0
132583.0
132691.0
132787.0
132876.0
133318.0
133398.0
133467.0
133521.0
133564.0
133598.0
133624.0
133642.0
133649.0
133642.0
133619.0
133580.0
133525.0
133468.0
133413.0
133365.0
133331.0
133301.0
133245.0
133210.0
133175.0
133143.0
133122.0
133123.0
133120.0
133096.0
133055.0
133009.0
132972.0
132953.0
132953.0
132954.0
132943.0
132894.0
132816.0
132727.0
132664.0
132660.0
132728.0
132853.0
132995.0
133109.0
133171.0
133195.0
133234.0
133359.0
133620.0
134022.0
134512.0
134993.0
135363.0
135554.0
135379.0
135081.0
134690.0
134201.0
133601.0
132898.0
132152.0
131480.0
131013.0
130837.0
130932.0
131162.0
131328.0
131263.0
130925.0
130434.0
130024.0
129918.0
130193.0
130707.0
131147.0
130038.0
129672.0
130377.0
132701.0
136673.0
141661.0
146470.0
149717.0
150321.0
147931.0
143099.0
137117.0
131575.0
127814.0
126487.0
127389.0
129635.0
132059.0
133686.0
134065.0
133345.0
131526.0
132277.0
132694.0
132638.0
132224.0
131721.0
131399.0
131395.0
132035.0
132309.0
132368.0
132230.0
132008.0
131847.0
131843.0
131996.0
132233.0
132445.0
132562.0
132580.0
132620.0
132785.0
132992.0
133177.0
133294.0
133328.0
133319.0
133313.0
133362.0
133487.0
133677.0
133900.0
134128.0
134343.0
134549.0
134760.0
134993.0
135256.0
135542.0
135835.0
136117.0
136377.0
136615.0
136835.0
137041.0
137229.0
137381.0
137471.0
137333.0
137066.0
136660.0
136137.0
135527.0
134867.0
134202.0
133566.0
132491.0
132078.0
131753.0
131514.0
131355.0
131271.0
131248.0
131276.0
131343.0
131434.0
131539.0
131653.0
131776.0
131908.0
132050.0
132204.0
132363.0
132523.0
132671.0
133099.0
133168.0
133234.0
133297.0
133356.0
133409.0
133456.0
133495.0
133524.0
133544.0
133557.0
133563.0
133562.0
133554.0
133538.0
133513.0
133482.0
133384.0
133358.0
133332.0
133304.0
133268.0
133225.0
133176.0
133130.0
133092.0
133062.0
133042.0
133028.0
133006.0
132973.0
132931.0
132895.0
132877.0
132885.0
132917.0
132948.0
132959.0
132926.0
132858.0
132774.0
132714.0
132712.0
132781.0
132903.0
133039.0
133147.0
133211.0
133249.0
133318.0
133484.0
133786.0
134215.0
134702.0
135150.0
135466.0
135593.0
135530.0
135313.0
134982.0
134555.0
134031.0
133399.0
132683.0
131962.0
131362.0
131004.0
130937.0
131098.0
131319.0
131404.0
131218.0
130781.0
130269.0
129935.0
129971.0
130380.0
130940.0
131301.0
131184.0
130578.0
129864.0
129719.0
130869.0
133732.0
138127.0
143207.0
147656.0
150128.0
149741.0
135077.0
130039.0
127099.0
126616.0
128114.0
130555.0
132789.0
133996.0
133947.0
132975.0
131735.0
130863.0
130700.0
132656.0
132891.0
132655.0
132142.0
131652.0
131421.0
131521.0
131844.0
132186.0
132367.0
132313.0
132091.0
131849.0
131731.0
131810.0
132053.0
132356.0
132741.0
132705.0
132698.0
132770.0
132920.0
133100.0
133252.0
133337.0
133354.0
133340.0
133345.0
133407.0
133538.0
133728.0
133944.0
134164.0
134379.0
134588.0
134806.0
135045.0
135304.0
135573.0
135841.0
136092.0
136328.0
136544.0
136752.0
136947.0
137124.0
137264.0
137332.0
137302.0
137147.0
136856.0
136431.0
135892.0
135271.0
134610.0
133954.0
133344.0
132807.0
132358.0
131995.0
131215.0
131232.0
131303.0
131418.0
131872.0
132019.0
132156.0
132288.0
132423.0
132563.0
132709.0
132856.0
132991.0
133110.0
133207.0
133281.0
133339.0
133390.0
133441.0
133495.0
133552.0
133605.0
133648.0
133669.0
133668.0
133644.0
133601.0
133548.0
133492.0
133442.0
133402.0
133370.0
133344.0
133316.0
133283.0
133242.0
133194.0
133148.0
133111.0
133091.0
133068.0
133009.0
132943.0
132887.0
132865.0
132888.0
132902.0
132886.0
132829.0
132750.0
132682.0
132661.0
132709.0
132812.0
132936.0
133033.0
133073.0
133068.0
133067.0
133148.0
133367.0
133746.0
134241.0
134760.0
135581.0
135498.0
135263.0
134899.0
134404.0
133772.0
133026.0
132242.0
131552.0
131088.0
130934.0
131053.0
131296.0
131450.0
131349.0
130961.0
130422.0
129985.0
129879.0
130176.0
130714.0
131157.0
131176.0
130662.0
129890.0
129486.0
130222.0
132655.0
136808.0
142002.0
146987.0
150326.0
150909.0
148387.0
143348.0
137132.0
131386.0
127489.0
126096.0
126994.0
129271.0
131740.0
133415.0
133838.0
133168.0
131983.0
130960.0
130555.0
130844.0
131557.0
132269.0
132629.0
132517.0
132071.0
131577.0
131303.0
132453.0
132280.0
132027.0
131857.0
131875.0
132075.0
132370.0
132637.0
132787.0
132802.0
132739.0
132686.0
132706.0
132820.0
132992.0
133161.0
133274.0
133316.0
133313.0
133311.0
133353.0
133464.0
133636.0
133847.0
134071.0
134298.0
134529.0
134773.0
135039.0
135320.0
135606.0
135874.0
136114.0
136323.0
136513.0
136699.0
136888.0
137074.0
137236.0
137334.0
137327.0
137191.0
136916.0
136512.0
136004.0
135426.0
134817.0
134207.0
133624.0
133091.0
131639.0
131467.0
131369.0
131333.0
131349.0
131402.0
131484.0
131585.0
131696.0
131818.0
131949.0
132087.0
132231.0
132379.0
132529.0
132674.0
132814.0
132941.0
133055.0
133150.0
133230.0
133292.0
133341.0
133380.0
133412.0
133453.0
133458.0
133451.0
133435.0
133413.0
133393.0
133376.0
133362.0
133345.0
133320.0
133278.0
133212.0
133130.0
133049.0
132989.0
132965.0
132976.0
133003.0
133019.0
132996.0
132923.0
132816.0
132707.0
132645.0
132652.0
132734.0
132859.0
132982.0
133067.0
133112.0
133158.0
133272.0
133511.0
133901.0
134399.0
134916.0
135346.0
135600.0
135649.0
135515.0
135246.0
134886.0
134443.0
133906.0
133258.0
132536.0
131834.0
131016.0
131225.0
131442.0
131471.0
131210.0
130729.0
130237.0
129992.0
130145.0
130634.0
131186.0
131437.0
131154.0
129868.0
131451.0
134792.0
139528.0
144635.0
148717.0
150484.0
149236.0
145160.0
139315.0
133269.0
128561.0
126177.0
126262.0
128157.0
130734.0
132873.0
133869.0
133625.0
132577.0
131401.0
130683.0
130673.0
131239.0
132000.0
132548.0
132654.0
132342.0
131846.0
131450.0
131353.0
132301.0
132456.0
132381.0
132172.0
131979.0
132566.0
132746.0
132802.0
132768.0
132722.0
132741.0
132857.0
133047.0
133251.0
133409.0
133491.0
133512.0
133516.0
133551.0
133648.0
133813.0
134018.0
134236.0
134443.0
134639.0
134837.0
135055.0
135300.0
135568.0
135845.0
136111.0
136358.0
136586.0
136808.0
137026.0
137238.0
137420.0
137537.0
137541.0
136639.0
136063.0
135412.0
134737.0
133471.0
132929.0
132455.0
132052.0
131718.0
131457.0
131155.0
131204.0
131304.0
131436.0
131582.0
131732.0
131885.0
132044.0
132205.0
132372.0
132534.0
132678.0
132955.0
133014.0
133082.0
133165.0
133265.0
133372.0
133470.0
133544.0
133585.0
133598.0
133589.0
133574.0
133555.0
133541.0
133523.0
133499.0
133465.0
133420.0
133369.0
133319.0
133271.0
133225.0
133174.0
133114.0
133052.0
132956.0
132939.0
132935.0
132924.0
132888.0
132822.0
132736.0
132658.0
132626.0
132660.0
132756.0
132883.0
132997.0
133067.0
133095.0
133124.0
133222.0
133453.0
133833.0
134324.0
134836.0
135262.0
135519.0
135581.0
135467.0
135226.0
134894.0
134473.0
131160.0
130848.0
130848.0
131066.0
131111.0
130639.0
130150.0
129904.0
130055.0
130546.0
131097.0
131347.0
131077.0
130383.0
129761.0
129949.0
131629.0
135064.0
139862.0
144975.0
149002.0
150663.0
149294.0
145127.0
139257.0
133267.0
128681.0
126446.0
126659.0
128617.0
131172.0
133212.0
134068.0
133692.0
132551.0
131346.0
130650.0
130691.0
131311.0
132102.0
132651.0
132731.0
132385.0
131859.0
131450.0
131353.0
131575.0
132435.0
132332.0
132093.0
131875.0
131805.0
131921.0
132166.0
132423.0
132595.0
132644.0
132601.0
132548.0
132558.0
132667.0
133053.0
133214.0
133307.0
133342.0
133361.0
133415.0
133529.0
133706.0
133925.0
134157.0
134384.0
134603.0
134821.0
135056.0
135307.0
135573.0
135837.0
136087.0
136323.0
136546.0
136767.0
137394.0
137508.0
137509.0
137367.0
137074.0
136641.0
136095.0
135480.0
134833.0
134193.0
133590.0
133040.0
132556.0
132142.0
131803.0
131543.0
131365.0
131269.0
131244.0
131283.0
131367.0
131479.0
131604.0
131734.0
131868.0
132008.0
132158.0
132319.0
132485.0
132798.0
132926.0
133024.0
133096.0
133149.0
133192.0
133237.0
133284.0
133335.0
133444.0
133444.0
133424.0
133393.0
133361.0
133337.0
133326.0
133329.0
133335.0
133336.0
133319.0
133276.0
133208.0
133132.0
133068.0
133035.0
133037.0
133061.0
133080.0
133065.0
133003.0
132899.0
132788.0
132708.0
132696.0
132760.0
132873.0
132991.0
133069.0
133095.0
133096.0
133139.0
133299.0
133618.0
134080.0
134614.0
135111.0
135467.0
135625.0
135582.0
135374.0
135045.0
134616.0
134082.0
133432.0
132695.0
131952.0
131335.0
130967.0
130901.0
131071.0
131306.0
131398.0
131212.0
130769.0
130248.0
129907.0
129942.0
130356.0
131278.0
131139.0
130495.0
129736.0
129561.0
130720.0
133645.0
138155.0
143378.0
147967.0
150532.0
150163.0
146792.0
141272.0
135102.0
129898.0
126848.0
126330.0
127866.0
130389.0
132711.0
133978.0
133941.0
132935.0
131636.0
130706.0
130510.0
131005.0
131833.0
132545.0
132824.0
132117.0
131628.0
131398.0
131509.0
131852.0
132421.0
132380.0
132161.0
131910.0
131780.0
131845.0
132076.0
132364.0
132589.0
132685.0
132660.0
132583.0
132547.0
132607.0
132767.0
132977.0
133173.0
133307.0
133371.0
133397.0
133682.0
133890.0
134123.0
134353.0
134573.0
134788.0
135014.0
135262.0
135529.0
135805.0
136072.0
136315.0
136538.0
136749.0
136960.0
137175.0
137373.0
137525.0
137581.0
137498.0
137252.0
136842.0
136295.0
135656.0
133670.0
133105.0
132613.0
132198.0
131860.0
131600.0
131417.0
131267.0
131285.0
131344.0
131435.0
131544.0
131669.0
131806.0
131953.0
132107.0
132263.0
132415.0
132555.0
132680.0
132789.0
132888.0
132978.0
133064.0
133147.0
133225.0
133296.0
133451.0
133482.0
133499.0
133504.0
133497.0
133372.0
133330.0
133281.0
133224.0
133164.0
133110.0
133072.0
133054.0
133052.0
133052.0
133034.0
132979.0
132892.0
132786.0
132701.0
132667.0
132704.0
132799.0
132918.0
133019.0
133074.0
133095.0
133133.0
133258.0
133527.0
133946.0
134465.0
134984.0
135393.0
135613.0
135620.0
135438.0
135119.0
134699.0
134189.0
133581.0
132880.0
132141.0
131473.0
131003.0
130825.0
130920.0
131162.0
131351.0
131309.0
130989.0
130504.0
130092.0
129990.0
130290.0
130856.0
131364.0
131460.0
130994.0
130184.0
129623.0
130088.0
132199.0
136071.0
141127.0
146178.0
149782.0
150752.0
148622.0
143860.0
137741.0
131907.0
127801.0
126188.0
126944.0
129207.0
131776.0
132282.0
131139.0
130609.0
130822.0
131538.0
132318.0
132775.0
132741.0
132317.0
131783.0
131424.0
131394.0
131655.0
132028.0
132300.0
132346.0
132177.0
131916.0
131726.0
131716.0
131895.0
132177.0
132440.0
132592.0
132616.0
132567.0
132533.0
133179.0
133334.0
133407.0
133427.0
133445.0
133862.0
134099.0
134333.0
134546.0
134743.0
134944.0
135166.0
135414.0
135683.0
136418.0
136618.0
136810.0
137001.0
137185.0
137336.0
137415.0
137372.0
137185.0
136841.0
136364.0
135785.0
135148.0
134497.0
133866.0
133282.0
132759.0
132309.0
131942.0
131661.0
131469.0
131363.0
131332.0
131360.0
131428.0
131521.0
131633.0
131756.0
132201.0
132354.0
132500.0
132628.0
132739.0
132834.0
132924.0
133013.0
133109.0
133202.0
133290.0
133365.0
133420.0
133455.0
133475.0
133483.0
133487.0
133484.0
133477.0
133462.0
133436.0
133398.0
133351.0
133292.0
133227.0
133153.0
132931.0
132934.0
132952.0
132963.0
132670.0
132759.0
132891.0
133015.0
133088.0
133099.0
133089.0
133126.0
133288.0
133622.0
134107.0
134658.0
135158.0
135499.0
135623.0
135535.0
135285.0
134932.0
134505.0
133997.0
133389.0
132684.0
131952.0
131317.0
130907.0
130790.0
130922.0
130702.0
130213.0
129886.0
129926.0
130343.0
130920.0
131296.0
131168.0
130513.0
129704.0
129449.0
130528.0
133417.0
137988.0
143388.0
148254.0
151134.0
151024.0
147774.0
142181.0
135745.0
130150.0
126684.0
125840.0
132270.0
133790.0
133988.0
133130.0
131864.0
130863.0
130537.0
130894.0
131619.0
132277.0
132552.0
132370.0
131909.0
131460.0
131267.0
131410.0
132428.0
132232.0
131999.0
131881.0
131959.0
132203.0
132506.0
132746.0
132854.0
132839.0
132769.0
132736.0
132793.0
132936.0
133117.0
133267.0
133344.0
133352.0
133336.0
133355.0
133456.0
133648.0
133904.0
134181.0
134444.0
134675.0
134882.0
136063.0
136279.0
136464.0
136627.0
137105.0
137233.0
137286.0
137220.0
137004.0
136637.0
136134.0
135537.0
134889.0
134236.0
133611.0
133042.0
132538.0
132110.0
131765.0
131504.0
131330.0
131255.0
131331.0
131432.0
131547.0
131677.0
131816.0
131968.0
132129.0
132294.0
132452.0
132597.0
132724.0
132835.0
132933.0
133026.0
133117.0
133205.0
133286.0
133357.0
133414.0
133458.0
133489.0
133509.0
133519.0
133514.0
133488.0
133433.0
133356.0
133265.0
133183.0
133130.0
133112.0
133120.0
133133.0
133120.0
133067.0
132975.0
132870.0
132792.0
132774.0
132826.0
132925.0
133031.0
133106.0
133141.0
133163.0
134277.0
134811.0
135280.0
135585.0
135674.0
135562.0
135303.0
134953.0
134539.0
134051.0
133460.0
132767.0
132036.0
131393.0
130978.0
130864.0
131016.0
131277.0
131438.0
131340.0
130965.0
130466.0
130096.0
130071.0
130430.0
130987.0
131390.0
131330.0
130747.0
129968.0
129654.0
130569.0
133207.0
137493.0
142650.0
147374.0
150256.0
150283.0
147254.0
141901.0
127151.0
129683.0
132215.0
133809.0
134092.0
131746.0
132422.0
132725.0
132572.0
132114.0
131819.0
132202.0
132437.0
132436.0
131997.0
131849.0
131889.0
132096.0
132377.0
132616.0
132736.0
132741.0
132690.0
132670.0
132738.0
132903.0
133120.0
133326.0
133473.0
133550.0
133586.0
133627.0
133715.0
133865.0
134066.0
134291.0
134516.0
134729.0
134938.0
135153.0
135388.0
135644.0
135913.0
136182.0
136441.0
136684.0
136913.0
137128.0
137321.0
137470.0
137552.0
137530.0
137377.0
137083.0
136653.0
136111.0
135485.0
134816.0
134138.0
133491.0
132900.0
132392.0
131981.0
131674.0
131462.0
131335.0
131276.0
131267.0
131290.0
131339.0
131411.0
131507.0
131629.0
131776.0
131945.0
132127.0
132312.0
132487.0
132645.0
132780.0
132892.0
132984.0
133061.0
133129.0
133196.0
133265.0
133339.0
133416.0
133492.0
133561.0
133611.0
133641.0
133647.0
133637.0
133614.0
133584.0
133551.0
133512.0
133464.0
133398.0
133315.0
133221.0
133132.0
133063.0
133024.0
133010.0
133003.0
132983.0
132933.0
132856.0
132777.0
132726.0
132730.0
132796.0
133087.0
133115.0
133123.0
133177.0
133350.0
133681.0
134699.0
135195.0
135538.0
135667.0
135587.0
135350.0
135017.0
134622.0
134163.0
133604.0
132935.0
132206.0
131525.0
131032.0
130825.0
130892.0
131105.0
131264.0
131193.0
130844.0
130334.0
129900.0
129780.0
130050.0
130572.0
131031.0
131098.0
130656.0
129954.0
129599.0
130346.0
132758.0
136874.0
142043.0
147035.0
150417.0
151067.0
148609.0
143603.0
137379.0
131588.0
127627.0
126187.0
127071.0
129375.0
131893.0
133610.0
134042.0
133333.0
132070.0
130955.0
130476.0
130740.0
131483.0
132267.0
132713.0
132669.0
132250.0
131733.0
131397.0
131381.0
131643.0
132003.0
132259.0
132294.0
132126.0
131879.0
131713.0
131727.0
131924.0
132219.0
132490.0
132652.0
132688.0
132651.0
132624.0
132674.0
132821.0
133026.0
133228.0
133376.0
133449.0
133470.0
133486.0
133537.0
133649.0
133817.0
134019.0
134660.0
134891.0
135147.0
135429.0
135726.0
136020.0
136297.0
136560.0
136810.0
137053.0
137289.0
137501.0
137658.0
137716.0
137638.0
137399.0
136999.0
136463.0
135829.0
135145.0
134458.0
133807.0
133220.0
132708.0
132281.0
131935.0
131668.0
131479.0
131366.0
131322.0
131341.0
131407.0
131509.0
131630.0
131757.0
131885.0
132008.0
132127.0
132243.0
132357.0
132468.0
132578.0
132684.0
132788.0
132891.0
132993.0
133093.0
133189.0
133275.0
133350.0
133407.0
133443.0
133460.0
133461.0
133449.0
133432.0
133420.0
133411.0
133409.0
133409.0
133403.0
133382.0
133339.0
133273.0
133191.0
133108.0
133048.0
133025.0
133042.0
133081.0
133111.0
132757.0
132752.0
132826.0
132948.0
133069.0
133146.0
133165.0
133163.0
133209.0
133381.0
133724.0
134213.0
134768.0
135709.0
135598.0
135318.0
134938.0
134489.0
131947.0
131315.0
130898.0
130769.0
130892.0
131120.0
131257.0
131153.0
130794.0
130325.0
129986.0
129974.0
130321.0
130844.0
131215.0
131150.0
130613.0
129943.0
129789.0
130878.0
133667.0
138035.0
143191.0
147840.0
150602.0
150512.0
147414.0
142057.0
135869.0
130471.0
127107.0
126261.0
127560.0
129999.0
132395.0
133837.0
133992.0
133115.0
131844.0
130847.0
130533.0
130923.0
131699.0
132429.0
132773.0
132642.0
132190.0
131705.0
131438.0
131496.0
131797.0
132149.0
132365.0
132352.0
132153.0
131903.0
131754.0
131789.0
131989.0
132259.0
132486.0
132594.0
132583.0
132517.0
132479.0
132532.0
132681.0
132887.0
133089.0
133239.0
133325.0
133374.0
133432.0
133538.0
133707.0
133930.0
134180.0
134428.0
134662.0
134884.0
135601.0
135872.0
136143.0
136409.0
136662.0
136906.0
137135.0
137345.0
137516.0
137620.0
137494.0
137221.0
136811.0
136285.0
135676.0
135021.0
134355.0
133712.0
133115.0
132580.0
132122.0
131745.0
131456.0
131253.0
131133.0
131087.0
131100.0
131373.0
131510.0
131657.0
131815.0
131980.0
132612.0
132748.0
132873.0
132989.0
133099.0
133200.0
133291.0
133372.0
133440.0
133503.0
133561.0
133611.0
133653.0
133679.0
133684.0
133660.0
133613.0
133555.0
133496.0
133448.0
133418.0
133397.0
133377.0
133337.0
133267.0
133174.0
133075.0
132993.0
132950.0
132945.0
132965.0
132977.0
132960.0
132902.0
132821.0
132748.0
132718.0
132750.0
132834.0
133074.0
133114.0
133197.0
133391.0
133740.0
134232.0
134804.0
135346.0
135756.0
135962.0
135951.0
135752.0
135411.0
134961.0
134405.0
133739.0
132985.0
132216.0
131552.0
131117.0
130972.0
131072.0
131260.0
131334.0
131148.0
130693.0
130128.0
129705.0
130531.0
130957.0
130942.0
130422.0
129708.0
129452.0
130410.0
133087.0
137427.0
142677.0
147551.0
150627.0
136576.0
131001.0
127391.0
126308.0
127440.0
129815.0
132236.0
133752.0
133979.0
133135.0
131844.0
130785.0
130397.0
130720.0
131454.0
132163.0
132495.0
132355.0
131892.0
131399.0
131141.0
131228.0
131584.0
132007.0
132296.0
132343.0
132186.0
131961.0
131827.0
131875.0
132096.0
132396.0
132658.0
132804.0
132832.0
132799.0
132795.0
132876.0
133049.0
133270.0
133468.0
133595.0
133638.0
133641.0
133731.0
133875.0
134048.0
134230.0
134410.0
134601.0
134818.0
135071.0
135355.0
135656.0
135946.0
136212.0
136447.0
136662.0
136867.0
137426.0
137512.0
137479.0
137304.0
136977.0
136516.0
135945.0
135308.0
134648.0
133998.0
133391.0
132850.0
132387.0
131519.0
131398.0
131342.0
131335.0
131366.0
131420.0
131490.0
131573.0
131673.0
131792.0
131931.0
132087.0
132251.0
132415.0
132565.0
132693.0
132798.0
132882.0
132950.0
133017.0
133086.0
133331.0
133404.0
133458.0
133490.0
133502.0
133499.0
133486.0
133472.0
133457.0
133443.0
133423.0
133393.0
133353.0
133313.0
133274.0
133242.0
133213.0
133175.0
133123.0
133056.0
132983.0
132925.0
132903.0
132928.0
133126.0
133144.0
133129.0
133128.0
133200.0
133402.0
133751.0
134207.0
134692.0
135101.0
135352.0
135412.0
135295.0
135050.0
134717.0
134307.0
133804.0
133190.0
132484.0
131768.0
131170.0
130813.0
130750.0
130917.0
131150.0
130674.0
130196.0
129899.0
129962.0
130386.0
130949.0
131298.0
131156.0
130526.0
129797.0
129666.0
130880.0
133873.0
138477.0
143830.0
148582.0
151322.0
151092.0
147771.0
142165.0
135753.0
130189.0
126731.0
125860.0
127189.0
129692.0
132171.0
133701.0
133933.0
131856.0
130841.0
130476.0
130787.0
131484.0
132146.0
132449.0
132306.0
131865.0
131404.0
131169.0
131260.0
131595.0
131988.0
132250.0
132288.0
132136.0
131926.0
131802.0
131846.0
132050.0
132324.0
132563.0
132696.0
132714.0
132678.0
132657.0
132707.0
132833.0
133138.0
133226.0
133258.0
133267.0
133303.0
133857.0
134143.0
134426.0
134683.0
134916.0
135142.0
135372.0
135620.0
135878.0
136137.0
136383.0
136604.0
136801.0
136979.0
137143.0
137279.0
137371.0
137384.0
137289.0
137060.0
136692.0
136198.0
135612.0
134976.0
134338.0
133737.0
133198.0
132730.0
132335.0
132007.0
131739.0
131534.0
131392.0
131317.0
131304.0
131345.0
131424.0
131529.0
131642.0
131759.0
132018.0
132166.0
132327.0
132489.0
132645.0
132784.0
132902.0
133479.0
133558.0
133614.0
133646.0
133657.0
133651.0
133634.0
133606.0
133561.0
133499.0
133424.0
133349.0
133283.0
133235.0
133203.0
133174.0
133133.0
133070.0
132990.0
132913.0
132866.0
132869.0
132924.0
133003.0
133077.0
133120.0
133134.0
133163.0
133267.0
133507.0
133900.0
134408.0
134936.0
135371.0
135619.0
135646.0
135476.0
135173.0
134795.0
134372.0
133886.0
133305.0
132631.0
131927.0
131308.0
130903.0
131096.0
131194.0
131052.0
130669.0
130202.0
129887.0
129913.0
130291.0
130822.0
131177.0
131089.0
130550.0
129923.0
129866.0
131085.0
133985.0
138389.0
143460.0
147891.0
150337.0
149905.0
146526.0
141025.0
134862.0
129635.0
127476.0
130043.0
132474.0
133903.0
134032.0
133159.0
131926.0
130992.0
130736.0
131148.0
131899.0
132558.0
132812.0
132598.0
132094.0
131598.0
131364.0
131475.0
131842.0
132255.0
132523.0
132551.0
132377.0
132142.0
131993.0
132012.0
132184.0
132421.0
132618.0
132712.0
132703.0
132657.0
132643.0
132711.0
132858.0
133286.0
133328.0
133356.0
133422.0
133559.0
133773.0
134032.0
134298.0
134538.0
134747.0
134938.0
135138.0
135366.0
135632.0
135920.0
136212.0
136486.0
136736.0
136967.0
137183.0
137385.0
137559.0
137670.0
137678.0
137543.0
137247.0
136797.0
136226.0
135577.0
134901.0
134241.0
133626.0
133077.0
132598.0
132190.0
131854.0
131590.0
131402.0
131289.0
131247.0
131337.0
131439.0
131563.0
131701.0
131850.0
132007.0
132168.0
132331.0
132486.0
132630.0
132755.0
132857.0
132940.0
133010.0
133072.0
133134.0
133199.0
133266.0
133333.0
133390.0
133435.0
133467.0
133486.0
133500.0
133514.0
133523.0
133527.0
133519.0
133491.0
133437.0
133356.0
133265.0
133106.0
133106.0
133109.0
133089.0
133032.0
132945.0
132853.0
132791.0
132784.0
132839.0
132937.0
133039.0
133113.0
133156.0
133199.0
133302.0
133521.0
133881.0
134356.0
134861.0
135291.0
135556.0
135611.0
135475.0
135196.0
134822.0
134379.0
133859.0
133240.0
132538.0
131824.0
131222.0
130856.0
130786.0
130956.0
131208.0
131335.0
131195.0
130788.0
130272.0
129897.0
129860.0
130190.0
130695.0
131050.0
130979.0
130462.0
129846.0
129788.0
130998.0
133906.0
138355.0
143529.0
148125.0
150782.0
150564.0
147353.0
141934.0
127107.0
126329.0
127664.0
130100.0
132465.0
133130.0
131890.0
130936.0
130661.0
131061.0
131817.0
132494.0
132771.0
132576.0
132083.0
131585.0
131337.0
131427.0
131763.0
132145.0
132371.0
132357.0
132150.0
131895.0
131747.0
131789.0
132001.0
132280.0
132507.0
132606.0
132578.0
132493.0
132442.0
132489.0
132643.0
132861.0
133077.0
133238.0
133329.0
133379.0
133432.0
133534.0
133701.0
133923.0
134173.0
134427.0
134667.0
134897.0
135129.0
135371.0
135626.0
135885.0
136142.0
136387.0
136624.0
136859.0
137516.0
137639.0
137648.0
137510.0
137215.0
136775.0
136228.0
135621.0
134996.0
134389.0
133820.0
133303.0
132840.0
132434.0
132091.0
131819.0
131621.0
131458.0
131471.0
131525.0
131601.0
132096.0
132232.0
132382.0
132537.0
132687.0
132820.0
132927.0
133007.0
133062.0
133102.0
133139.0
133178.0
133225.0
133277.0
133327.0
133369.0
133396.0
133411.0
133415.0
133414.0
133411.0
133409.0
133398.0
133373.0
133327.0
133261.0
133191.0
133132.0
133095.0
133076.0
133061.0
133034.0
132974.0
132886.0
132788.0
132713.0
132693.0
132738.0
132833.0
132947.0
133044.0
133114.0
133183.0
133303.0
133536.0
133912.0
134412.0
134956.0
135433.0
135742.0
135823.0
135686.0
134974.0
134507.0
133979.0
133378.0
132702.0
132001.0
131383.0
130966.0
130823.0
130927.0
131140.0
131270.0
131168.0
130808.0
130328.0
129958.0
129907.0
130228.0
130751.0
131162.0
131154.0
130658.0
129963.0
129693.0
130584.0
133142.0
137337.0
142458.0
147264.0
150362.0
150708.0
136816.0
131254.0
127577.0
126378.0
127396.0
129700.0
132115.0
133687.0
133999.0
133241.0
132006.0
130969.0
130575.0
130886.0
131621.0
132720.0
132615.0
132169.0
131668.0
131378.0
131418.0
131724.0
132104.0
132357.0
132373.0
132185.0
131930.0
132022.0
132342.0
132634.0
132802.0
132830.0
132767.0
132701.0
132702.0
132794.0
132954.0
133125.0
133260.0
133341.0
133381.0
133420.0
133492.0
133616.0
133786.0
133989.0
134203.0
134429.0
134665.0
134923.0
135200.0
135492.0
136293.0
136520.0
136742.0
136971.0
137204.0
137419.0
137581.0
137645.0
137571.0
137343.0
136969.0
136471.0
135887.0
135254.0
134609.0
133980.0
133389.0
132853.0
132002.0
131705.0
131501.0
131384.0
131344.0
131361.0
131421.0
131506.0
131609.0
131727.0
131860.0
132007.0
132168.0
132337.0
132502.0
132648.0
132772.0
132866.0
132937.0
132994.0
133054.0
133125.0
133209.0
133297.0
133379.0
133437.0
133460.0
133452.0
133421.0
133386.0
133385.0
133381.0
133346.0
133282.0
133203.0
133134.0
133092.0
133083.0
133088.0
133080.0
133036.0
132947.0
132832.0
132730.0
132680.0
132703.0
132789.0
132897.0
132979.0
133010.0
133007.0
133029.0
133161.0
133462.0
133941.0
134529.0
135113.0
135562.0
135790.0
135541.0
135169.0
134712.0
134188.0
133585.0
132900.0
132174.0
131502.0
131012.0
130804.0
130876.0
131325.0
131323.0
131041.0
130574.0
130150.0
130006.0
130249.0
130767.0
131255.0
131376.0
130964.0
130220.0
129707.0
130190.0
132288.0
136138.0
141192.0
146289.0
149991.0
151099.0
149105.0
144429.0
138312.0
132387.0
128118.0
126310.0
126896.0
129050.0
131589.0
133449.0
134066.0
131140.0
130567.0
130730.0
131402.0
132163.0
132622.0
131683.0
131336.0
131318.0
131601.0
132320.0
132093.0
131916.0
131899.0
132054.0
132305.0
132544.0
132679.0
132697.0
132647.0
132612.0
132661.0
132808.0
133016.0
133218.0
133364.0
133435.0
133460.0
133491.0
133573.0
133727.0
133939.0
134178.0
134408.0
134614.0
134800.0
134987.0
135195.0
135432.0
135690.0
135949.0
136190.0
136792.0
136984.0
137172.0
137336.0
137432.0
137418.0
137259.0
136943.0
136485.0
135916.0
135280.0
134624.0
133988.0
133399.0
132874.0
132418.0
132038.0
131736.0
131374.0
131312.0
131319.0
131377.0
131466.0
131568.0
131668.0
131762.0
131856.0
131958.0
132218.0
132378.0
132550.0
132716.0
132864.0
133133.0
133175.0
133214.0
133262.0
133320.0
133390.0
133521.0
133494.0
133429.0
133345.0
133262.0
133199.0
133160.0
133134.0
133100.0
133044.0
132959.0
132866.0
132792.0
132768.0
132807.0
132893.0
132990.0
133059.0
133073.0
133098.0
133231.0
133524.0
133978.0
134527.0
135066.0
135475.0
135675.0
135103.0
134687.0
134203.0
133631.0
132963.0
132239.0
131561.0
131059.0
130842.0
130912.0
131156.0
131379.0
131388.0
130152.0
129959.0
130163.0
130667.0
131177.0
131340.0
130965.0
130217.0
129637.0
129992.0
131944.0
135696.0
140768.0
146041.0
150062.0
151550.0
149886.0
145368.0
139162.0
132904.0
128139.0
125817.0
126019.0
128018.0
130650.0
132788.0
133752.0
133476.0
132411.0
131240.0
130533.0
130525.0
131073.0
131798.0
132307.0
132379.0
132057.0
131563.0
131184.0
131097.0
131312.0
131689.0
132032.0
132194.0
132155.0
132001.0
131875.0
131892.0
132076.0
132370.0
132665.0
132874.0
132967.0
132977.0
132977.0
133035.0
133170.0
133352.0
133526.0
133673.0
133655.0
133635.0
133662.0
133768.0
133947.0
134630.0
134839.0
135043.0
135254.0
135479.0
135712.0
135939.0
136148.0
136338.0
136516.0
136693.0
136872.0
137046.0
137188.0
137261.0
137225.0
137054.0
136305.0
135769.0
135174.0
134555.0
133949.0
133379.0
132873.0
132441.0
132098.0
131836.0
131659.0
131551.0
131500.0
131490.0
131515.0
131569.0
131653.0
131764.0
131900.0
132051.0
132208.0
132357.0
132492.0
132611.0
132713.0
132802.0
132888.0
132971.0
133056.0
133141.0
133228.0
133309.0
133382.0
133439.0
133473.0
133480.0
133455.0
133358.0
133320.0
133307.0
133312.0
133321.0
133304.0
133242.0
133136.0
133007.0
132892.0
132836.0
132853.0
132937.0
133049.0
133194.0
133216.0
133263.0
133405.0
133693.0
134131.0
134655.0
135163.0
135540.0
135712.0
135662.0
135423.0
135053.0
134595.0
131408.0
130980.0
130834.0
130950.0
131197.0
131383.0
131342.0
131032.0
130570.0
130186.0
130096.0
130377.0
130884.0
131310.0
131341.0
130867.0
130142.0
129762.0
130467.0
132806.0
136812.0
149941.0
150505.0
148014.0
143024.0
136853.0
131129.0
127240.0
125869.0
126826.0
129208.0
131814.0
133621.0
134140.0
133495.0
132265.0
131148.0
130643.0
130862.0
131559.0
132307.0
132726.0
132669.0
132247.0
131735.0
131416.0
131433.0
131743.0
132163.0
132481.0
132570.0
132439.0
132208.0
132036.0
132031.0
132199.0
132459.0
132697.0
132824.0
132827.0
132758.0
132704.0
132737.0
132875.0
133084.0
133300.0
133469.0
133570.0
133621.0
133671.0
133759.0
133905.0
134097.0
134308.0
134510.0
135059.0
135277.0
135525.0
135790.0
136052.0
136292.0
136506.0
136704.0
136903.0
137106.0
137304.0
137528.0
137457.0
137214.0
136807.0
136264.0
134334.0
133741.0
133209.0
132739.0
132330.0
131503.0
131385.0
131349.0
131380.0
131459.0
131564.0
131683.0
131806.0
131937.0
132079.0
132233.0
132398.0
132561.0
133076.0
133132.0
133190.0
133257.0
133462.0
133512.0
133541.0
133545.0
133522.0
133473.0
133404.0
133330.0
133269.0
133230.0
133220.0
133221.0
133211.0
133165.0
133073.0
132946.0
132820.0
132735.0
132727.0
132800.0
133143.0
133185.0
133213.0
133294.0
133507.0
133886.0
134409.0
134982.0
135480.0
135787.0
135844.0
135663.0
135309.0
134858.0
134362.0
133823.0
133221.0
132550.0
131858.0
131252.0
130852.0
130731.0
130858.0
131091.0
131232.0
131124.0
130752.0
130261.0
129891.0
129858.0
130212.0
130773.0
131210.0
131213.0
130715.0
130027.0
129792.0
130757.0
133422.0
137725.0
142911.0
147693.0
150660.0
150787.0
147845.0
142539.0
136284.0
130727.0
127172.0
126167.0
127377.0
129812.0
132264.0
133782.0
133995.0
133139.0
131853.0
130826.0
130492.0
130878.0
131674.0
132158.0
131645.0
131373.0
131451.0
131797.0
132202.0
132455.0
132452.0
132231.0
131944.0
131760.0
131779.0
131999.0
132318.0
132611.0
132784.0
132823.0
132787.0
132760.0
132812.0
132959.0
133166.0
133371.0
133522.0
133600.0
133631.0
133658.0
133723.0
133845.0
134019.0
134219.0
134423.0
134618.0
134808.0
135008.0
135225.0
135463.0
135715.0
135966.0
136207.0
136437.0
136658.0
136873.0
137362.0
137373.0
137251.0
136982.0
136574.0
136054.0
135458.0
134829.0
134206.0
133619.0
133092.0
132637.0
132261.0
131968.0
131753.0
131610.0
131533.0
131511.0
131534.0
131588.0
131666.0
131762.0
131870.0
131992.0
132122.0
132259.0
132401.0
132543.0
132680.0
132806.0
132921.0
133022.0
133110.0
133187.0
133255.0
133317.0
133374.0
133425.0
133464.0
133488.0
133496.0
133488.0
133468.0
133442.0
133416.0
133392.0
133369.0
133343.0
133309.0
133260.0
133205.0
133151.0
133111.0
133087.0
133075.0
133055.0
133011.0
132932.0
132828.0
132727.0
132663.0
132663.0
132733.0
132846.0
132959.0
133039.0
133075.0
133103.0
133190.0
133404.0
133782.0
134299.0
134868.0
135370.0
135691.0
135775.0
135632.0
135322.0
134916.0
134460.0
133954.0
133377.0
132721.0
132035.0
131423.0
131013.0
130882.0
131008.0
131251.0
131411.0
131326.0
130963.0
130455.0
130044.0
129953.0
130251.0
130780.0
131245.0
130765.0
130051.0
129717.0
130510.0
132962.0
137070.0
142152.0
146974.0
150132.0
150559.0
147948.0
142906.0
136782.0
131198.0
127491.0
126277.0
127309.0
129654.0
132124.0
133748.0
134095.0
133346.0
132100.0
131043.0
130634.0
130942.0
131688.0
132432.0
132817.0
132715.0
132257.0
131736.0
131418.0
131436.0
131731.0
132115.0
132385.0
132430.0
132275.0
132046.0
131898.0
131923.0
132117.0
132390.0
132628.0
132750.0
132749.0
132692.0
132663.0
132729.0
132898.0
133122.0
133337.0
133483.0
133546.0
133557.0
133565.0
133623.0
133751.0
133941.0
134161.0
134378.0
134577.0
134759.0
134944.0
135150.0
135382.0
135636.0
135892.0
136134.0
136352.0
137064.0
137194.0
137254.0
137209.0
137029.0
136705.0
136249.0
135689.0
135070.0
134435.0
133823.0
133267.0
132783.0
132376.0
132049.0
131798.0
131623.0
131520.0
131484.0
131506.0
131574.0
131675.0
131794.0
131925.0
132345.0
132487.0
132626.0
132754.0
132865.0
132960.0
133039.0
133109.0
133181.0
133257.0
133338.0
133416.0
133479.0
133519.0
133529.0
133512.0
133478.0
133438.0
133404.0
133378.0
133361.0
133345.0
133325.0
133299.0
133269.0
133221.0
133209.0
133200.0
133188.0
133160.0
133123.0
133039.0
133036.0
133032.0
133002.0
132937.0
132844.0
132748.0
132690.0
132699.0
132782.0
132915.0
133050.0
133139.0
133201.0
133354.0
133675.0
134155.0
134716.0
135242.0
135612.0
135759.0
135671.0
134512.0
133962.0
133335.0
132645.0
131950.0
131359.0
130989.0
130902.0
131055.0
131299.0
131433.0
131312.0
130924.0
130424.0
130057.0
130032.0
130390.0
131308.0
130749.0
129993.0
129695.0
130605.0
133227.0
137494.0
142653.0
147423.0
150403.0
150575.0
147710.0
142510.0
136371.0
130916.0
127426.0
126435.0
127615.0
129988.0
132373.0
133848.0
134047.0
133204.0
131945.0
130940.0
130609.0
130980.0
131746.0
132472.0
132681.0
132219.0
131716.0
131431.0
131471.0
131762.0
132116.0
132341.0
132347.0
132175.0
131955.0
131834.0
131893.0
132111.0
132396.0
132629.0
132743.0
132665.0
132737.0
132905.0
133122.0
133326.0
133466.0
133531.0
133551.0
133570.0
133632.0
133751.0
133920.0
134114.0
134311.0
134504.0
134701.0
134910.0
135138.0
135380.0
135622.0
135849.0
136055.0
136245.0
136431.0
136628.0
136834.0
137033.0
137192.0
137262.0
137209.0
137013.0
136677.0
136224.0
135687.0
135104.0
134512.0
133933.0
133390.0
132899.0
132470.0
132117.0
131843.0
131651.0
131536.0
131490.0
131499.0
131546.0
131622.0
131717.0
131828.0
131954.0
132091.0
132235.0
132383.0
132523.0
132651.0
132766.0
133143.0
133234.0
133321.0
133397.0
133457.0
133499.0
133523.0
133537.0
133545.0
133554.0
133563.0
133567.0
133556.0
133524.0
133470.0
133399.0
133328.0
133270.0
133235.0
133224.0
133231.0
133234.0
133215.0
133166.0
133098.0
133030.0
132987.0
132982.0
133051.0
133005.0
132909.0
132793.0
132710.0
132706.0
132796.0
132959.0
133135.0
133267.0
133314.0
133296.0
133273.0
133338.0
133557.0
133944.0
134443.0
134945.0
135337.0
135534.0
135517.0
135314.0
134975.0
134539.0
134019.0
133410.0
132728.0
132038.0
131447.0
131071.0
130970.0
131101.0
131314.0
131416.0
131261.0
130845.0
130322.0
129939.0
129905.0
130257.0
130806.0
131209.0
131155.0
130581.0
129810.0
129506.0
130435.0
133117.0
137498.0
142827.0
147800.0
150977.0
151288.0
148464.0
143164.0
136798.0
131026.0
127201.0
125931.0
126952.0
133889.0
133201.0
132009.0
130987.0
130581.0
130861.0
131557.0
132252.0
132602.0
132494.0
132066.0
131592.0
131338.0
131415.0
131761.0
132187.0
132493.0
132570.0
132440.0
132234.0
132102.0
132135.0
132336.0
132619.0
132870.0
133005.0
133009.0
132918.0
133044.0
133174.0
133268.0
133314.0
133617.0
133827.0
134064.0
134299.0
134520.0
134725.0
134929.0
135141.0
135368.0
135604.0
135837.0
136055.0
136253.0
136434.0
136756.0
136893.0
136998.0
137045.0
137011.0
136877.0
136633.0
136278.0
135825.0
135291.0
134703.0
134096.0
133503.0
132959.0
132491.0
132116.0
131837.0
131646.0
131527.0
131462.0
131464.0
131519.0
131604.0
131721.0
131862.0
132018.0
132181.0
132343.0
132500.0
132651.0
132798.0
132942.0
133079.0
133206.0
133319.0
133411.0
133485.0
133545.0
133593.0
133634.0
133664.0
133676.0
133668.0
133638.0
133588.0
133527.0
133464.0
133402.0
133345.0
133226.0
133157.0
133089.0
133036.0
133010.0
133012.0
133029.0
133039.0
133021.0
132964.0
132887.0
132819.0
132796.0
132842.0
132943.0
133066.0
133161.0
133197.0
133182.0
133164.0
134338.0
134875.0
135319.0
135572.0
135600.0
135435.0
135141.0
134777.0
134364.0
132658.0
131994.0
131446.0
131133.0
131101.0
131284.0
131511.0
131585.0
131388.0
130955.0
130470.0
130181.0
130253.0
131434.0
131205.0
130535.0
129859.0
129886.0
131318.0
134503.0
139161.0
144349.0
148699.0
150874.0
150063.0
146316.0
140575.0
134359.0
129255.0
126373.0
126011.0
127640.0
130186.0
132492.0
133758.0
133768.0
132863.0
131691.0
130863.0
130704.0
131157.0
131882.0
132470.0
132654.0
132410.0
131937.0
131515.0
131360.0
131525.0
131891.0
132261.0
132463.0
132443.0
132270.0
132883.0
132954.0
132916.0
132845.0
132825.0
132908.0
133086.0
133305.0
133501.0
133850.0
133996.0
134188.0
134393.0
134595.0
134786.0
134974.0
135176.0
136708.0
136869.0
137030.0
137173.0
137272.0
137178.0
136927.0
136532.0
136017.0
135419.0
134783.0
134157.0
133575.0
133059.0
132618.0
132248.0
131949.0
131713.0
131539.0
131428.0
131377.0
131382.0
131437.0
131529.0
131647.0
131779.0
131920.0
132066.0
132221.0
132383.0
132552.0
132723.0
132887.0
133037.0
133165.0
133269.0
133349.0
133413.0
133467.0
133520.0
133572.0
133626.0
133676.0
133717.0
133740.0
133741.0
133719.0
133674.0
133614.0
133551.0
133493.0
133450.0
133420.0
133399.0
133375.0
133340.0
133284.0
133209.0
133127.0
133059.0
133027.0
133036.0
133076.0
133123.0
133142.0
133114.0
133033.0
132928.0
132845.0
132824.0
132884.0
133008.0
133148.0
133249.0
133514.0
133912.0
134426.0
134943.0
135444.0
135187.0
134816.0
134405.0
133975.0
133507.0
132965.0
132353.0
131738.0
131240.0
131230.0
130781.0
130294.0
130014.0
130105.0
130527.0
129898.0
130139.0
131840.0
135280.0
140100.0
150092.0
146012.0
140099.0
133929.0
129062.0
126524.0
126489.0
128320.0
130882.0
133032.0
134035.0
133778.0
132686.0
131450.0
130676.0
130636.0
131210.0
132003.0
132595.0
132725.0
132410.0
131883.0
131447.0
131317.0
131524.0
131928.0
132305.0
132485.0
132415.0
132181.0
131939.0
131836.0
131925.0
132165.0
132443.0
132666.0
132664.0
132757.0
132934.0
133143.0
133499.0
133527.0
133573.0
133668.0
133826.0
134031.0
134260.0
134500.0
134740.0
134985.0
135236.0
135497.0
135755.0
135999.0
136220.0
136421.0
136617.0
136822.0
137037.0
137257.0
137430.0
137123.0
136674.0
136121.0
135506.0
134872.0
134257.0
133681.0
133161.0
132699.0
132302.0
131971.0
131710.0
131526.0
131412.0
131367.0
131375.0
131427.0
131508.0
131612.0
132019.0
132182.0
132351.0
132515.0
132665.0
132795.0
132902.0
132991.0
133071.0
133151.0
133235.0
133323.0
133412.0
133496.0
133564.0
133611.0
133640.0
133652.0
133651.0
133644.0
133633.0
133617.0
133597.0
133573.0
133506.0
133486.0
133462.0
133428.0
133383.0
133326.0
133260.0
133199.0
133156.0
133140.0
133153.0
133181.0
133205.0
133207.0
133182.0
133137.0
133091.0
133074.0
133094.0
133148.0
133211.0
133254.0
133261.0
133243.0
133252.0
133349.0
133588.0
133972.0
134446.0
134901.0
135215.0
135296.0
135129.0
134763.0
134307.0
133857.0
133464.0
133114.0
132752.0
132328.0
131852.0
131399.0
131083.0
130991.0
131110.0
131330.0
131470.0
130536.0
130139.0
130052.0
130341.0
130854.0
131281.0
130703.0
133207.0
137387.0
142567.0
150792.0
151326.0
148769.0
143704.0
137474.0
131716.0
127808.0
126411.0
127312.0
129595.0
132067.0
133730.0
134123.0
133397.0
132144.0
131055.0
130607.0
130888.0
131630.0
132391.0
132804.0
132730.0
132287.0
131757.0
131418.0
131410.0
131680.0
132178.0
131940.0
131782.0
131806.0
132008.0
132302.0
132569.0
132720.0
132742.0
132691.0
132653.0
132694.0
132833.0
133034.0
133234.0
133381.0
133455.0
133480.0
133497.0
133552.0
133665.0
133835.0
134046.0
134271.0
134503.0
134741.0
134995.0
135268.0
135553.0
135839.0
136113.0
136364.0
136598.0
136823.0
137049.0
137271.0
137472.0
137617.0
137664.0
137575.0
137333.0
136941.0
136424.0
134509.0
133884.0
133313.0
132811.0
132387.0
132045.0
131783.0
131596.0
131482.0
131430.0
131435.0
131484.0
131570.0
131680.0
131804.0
131935.0
132062.0
132186.0
132300.0
132402.0
132498.0
132590.0
132684.0
132785.0
132900.0
133028.0
133165.0
133307.0
133441.0
133559.0
133651.0
133713.0
133740.0
133736.0
133733.0
133725.0
133675.0
133628.0
133569.0
133507.0
133457.0
133418.0
133398.0
133389.0
133384.0
133376.0
133361.0
133337.0
133308.0
133282.0
133265.0
133251.0
133241.0
133229.0
133215.0
133202.0
133196.0
133196.0
133202.0
133208.0
133203.0
133183.0
133154.0
133118.0
133090.0
133078.0
133085.0
133112.0
133161.0
133246.0
133391.0
133614.0
133917.0
134268.0
134601.0
134830.0
134880.0
134724.0
134398.0
133985.0
133581.0
133256.0
133003.0
132770.0
132477.0
132082.0
131625.0
131209.0
130967.0
130967.0
131174.0
131437.0
131560.0
131408.0
130990.0
130475.0
130125.0
130138.0
130531.0
131085.0
131442.0
131309.0
130669.0
129909.0
129748.0
130966.0
134033.0
138797.0
144378.0
149376.0
152316.0
152183.0
148830.0
143076.0
136452.0
130670.0
127044.0
126074.0
127355.0
129834.0
132276.0
133748.0
133906.0
133026.0
131760.0
130784.0
130500.0
130903.0
131665.0
132342.0
132612.0
132411.0
131442.0
131228.0
131366.0
131750.0
132168.0
132280.0
132577.0
132809.0
132796.0
132753.0
132804.0
132950.0
133135.0
133296.0
133384.0
133403.0
133387.0
133398.0
133476.0
133632.0
134505.0
134699.0
134902.0
135133.0
135389.0
135656.0
135907.0
136123.0
136300.0
136448.0
136588.0
136740.0
136900.0
137050.0
137143.0
137133.0
136980.0
136669.0
136211.0
135640.0
135008.0
134367.0
133760.0
133215.0
132739.0
132328.0
131975.0
131674.0
131426.0
131240.0
131122.0
131077.0
131103.0
131329.0
131506.0
131718.0
131963.0
132237.0
132533.0
132838.0
133130.0
133390.0
133601.0
133758.0
133869.0
134157.0
134213.0
134245.0
134247.0
134222.0
134184.0
134148.0
134134.0
134179.0
134207.0
134211.0
134172.0
134089.0
133831.0
133696.0
133577.0
133474.0
133381.0
133291.0
133197.0
133105.0
133018.0
132940.0
132874.0
132818.0
132774.0
132748.0
132753.0
132800.0
132891.0
133010.0
133127.0
133206.0
133225.0
133184.0
133120.0
133087.0
133133.0
133271.0
133464.0
133637.0
133704.0
133601.0
133313.0
131801.0
131235.0
130647.0
130024.0
129381.0
128790.0
128356.0
128175.0
128273.0
128572.0
128915.0
129122.0
129096.0
128875.0
128628.0
128565.0
128817.0
129338.0
129899.0
130194.0
130032.0
129510.0
129066.0
129362.0
131013.0
134260.0
138745.0
143508.0
147247.0
148768.0
147440.0
143483.0
137946.0
132371.0
128265.0
126595.0
127489.0
130258.0
133732.0
136727.0
138466.0
138130.0
137161.0
136526.0
136540.0
137120.0
137903.0
138462.0
138526.0
138084.0
137352.0
136637.0
136174.0
136034.0
136120.0
136239.0
136225.0
136018.0
135668.0
135296.0
135005.0
134827.0
134708.0
134550.0
134275.0
133870.0
133397.0
132963.0
132659.0
132524.0
132567.0
132576.0
132502.0
132363.0
132228.0
132180.0
132531.0
132909.0
133344.0
133774.0
134156.0
134489.0
134785.0
135069.0
135355.0
135643.0
136181.0
136414.0
136632.0
136844.0
137058.0
137274.0
137461.0
137579.0
137579.0
137425.0
137101.0
136617.0
136005.0
135311.0
134589.0
133883.0
133225.0
132634.0
132120.0
131694.0
131360.0
131131.0
131012.0
130999.0
131072.0
131200.0
131343.0
131464.0
131546.0
131590.0
131621.0
131680.0
131799.0
132004.0
132290.0
132630.0
132986.0
133316.0
133592.0
133811.0
133984.0
134135.0
134285.0
134445.0
134601.0
134733.0
134815.0
134828.0
134766.0
134644.0
134486.0
134318.0
134164.0
134041.0
133958.0
133910.0
133894.0
133897.0
133910.0
133917.0
133906.0
133868.0
133799.0
133708.0
133612.0
133527.0
133458.0
133398.0
133323.0
133212.0
133057.0
132868.0
132676.0
132524.0
132442.0
132444.0
132503.0
132582.0
132649.0
132698.0
132762.0
132895.0
133153.0
133562.0
134082.0
134634.0
135110.0
135426.0
135196.0
134826.0
134349.0
133761.0
133062.0
132298.0
131564.0
130987.0
130681.0
130670.0
130872.0
131111.0
131204.0
131052.0
130709.0
130365.0
130247.0
130488.0
131020.0
131587.0
131848.0
131591.0
130918.0
130295.0
130433.0
131991.0
135235.0
139806.0
144704.0
148577.0
132886.0
128266.0
125991.0
126207.0
128245.0
130971.0
133244.0
134337.0
134138.0
133080.0
131858.0
131083.0
131039.0
131611.0
132422.0
133042.0
131971.0
131800.0
131947.0
132284.0
132607.0
132748.0
132033.0
132207.0
132420.0
132580.0
132618.0
132587.0
132616.0
132737.0
132929.0
133140.0
133314.0
133418.0
133463.0
133644.0
133813.0
134023.0
134246.0
134460.0
134665.0
134870.0
135090.0
135333.0
135592.0
135852.0
136096.0
136315.0
136511.0
136697.0
136887.0
137085.0
137278.0
137435.0
137512.0
137467.0
137270.0
136913.0
136414.0
135813.0
135159.0
134505.0
133895.0
132502.0
132179.0
131918.0
131716.0
131585.0
131532.0
131556.0
131651.0
131793.0
131955.0
132111.0
132244.0
132350.0
132440.0
132531.0
132635.0
132759.0
132897.0
133039.0
133168.0
133280.0
133372.0
133454.0
133530.0
133606.0
133678.0
133736.0
133770.0
133705.0
133667.0
133647.0
133651.0
133674.0
133706.0
133731.0
133737.0
133722.0
133690.0
133649.0
133604.0
133548.0
133474.0
133369.0
133234.0
133081.0
132927.0
132791.0
132682.0
132595.0
132520.0
132444.0
132371.0
132311.0
132288.0
132318.0
132405.0
132527.0
132653.0
132756.0
132836.0
132923.0
133074.0
133337.0
133731.0
134223.0
134735.0
135166.0
135437.0
135511.0
135402.0
135151.0
134795.0
134348.0
133801.0
133152.0
132442.0
131763.0
131240.0
130979.0
131000.0
131209.0
131431.0
131477.0
131255.0
130825.0
130381.0
130774.0
131306.0
131584.0
131417.0
130910.0
132759.0
136188.0
140807.0
145591.0
149195.0
150416.0
148661.0
144210.0
138179.0
125908.0
128106.0
130935.0
133263.0
134385.0
134223.0
133226.0
132084.0
131391.0
131402.0
131983.0
132747.0
132334.0
131815.0
131598.0
131719.0
132043.0
132364.0
132514.0
132439.0
132214.0
131982.0
131873.0
131941.0
132147.0
132396.0
132587.0
132671.0
132660.0
132609.0
132580.0
132611.0
132696.0
132803.0
132897.0
132966.0
133020.0
133094.0
133218.0
134159.0
134413.0
134660.0
134912.0
135174.0
135444.0
135705.0
135937.0
136131.0
136294.0
136445.0
136607.0
136799.0
137397.0
137475.0
137428.0
137242.0
136926.0
136502.0
136001.0
135449.0
134874.0
134299.0
133749.0
133248.0
132821.0
132486.0
132252.0
132116.0
132059.0
132056.0
132086.0
132134.0
132196.0
132279.0
132389.0
132530.0
132696.0
132871.0
133044.0
133207.0
133360.0
133516.0
133682.0
134201.0
134303.0
134325.0
134260.0
134127.0
133958.0
133790.0
133649.0
133540.0
133448.0
133340.0
133192.0
132991.0
132747.0
132494.0
132267.0
132108.0
132033.0
132036.0
132090.0
132151.0
132177.0
132145.0
132056.0
131942.0
131845.0
131814.0
131873.0
132021.0
132226.0
132437.0
132613.0
132740.0
132839.0
132959.0
133155.0
133458.0
133854.0
134285.0
134670.0
134931.0
135030.0
134971.0
134793.0
134539.0
134229.0
133859.0
133419.0
132920.0
132425.0
132027.0
131822.0
131843.0
132031.0
132239.0
132290.0
132072.0
131604.0
130617.0
130929.0
131406.0
131727.0
131611.0
131021.0
130271.0
129972.0
130805.0
133186.0
136999.0
141487.0
145440.0
147573.0
147013.0
143658.0
138270.0
132250.0
127162.0
124190.0
123769.0
125491.0
128344.0
131136.0
132963.0
133481.0
132941.0
131962.0
131208.0
131079.0
131586.0
132415.0
133138.0
133433.0
133233.0
132725.0
132226.0
132008.0
132170.0
132611.0
133106.0
133424.0
133446.0
133212.0
132875.0
132616.0
132555.0
132692.0
132939.0
133170.0
133287.0
133275.0
133185.0
133105.0
133106.0
133202.0
133356.0
133496.0
133562.0
133526.0
133402.0
133227.0
133041.0
132862.0
132685.0
132501.0
132301.0
132108.0
131954.0
131880.0
131909.0
132039.0
132237.0
132452.0
132646.0
132964.0
133176.0
133520.0
134062.0
134824.0
135771.0
136816.0
137837.0
138699.0
139295.0
139559.0
139498.0
139171.0
138684.0
138158.0
137688.0
137324.0
137059.0
136846.0
136612.0
136299.0
135883.0
135392.0
134890.0
134462.0
134182.0
134084.0
134577.0
134762.0
134845.0
134802.0
134642.0
134400.0
134120.0
133839.0
133578.0
133345.0
133131.0
132917.0
132688.0
132432.0
132153.0
131861.0
131583.0
131345.0
131163.0
131047.0
130986.0
130960.0
130936.0
130885.0
130807.0
130717.0
130643.0
130618.0
130836.0
130912.0
130951.0
130963.0
130990.0
131970.0
132345.0
132672.0
132936.0
133176.0
133462.0
133862.0
134398.0
135026.0
135655.0
136499.0
136611.0
136535.0
136329.0
136026.0
135623.0
135090.0
134407.0
133613.0
132823.0
132193.0
131860.0
131861.0
132098.0
132376.0
132488.0
132332.0
131970.0
131607.0
131479.0
131697.0
132160.0
132560.0
132539.0
131915.0
130869.0
129977.0
130047.0
140388.0
145648.0
149678.0
151175.0
149501.0
144960.0
138727.0
132442.0
127646.0
125270.0
125375.0
129687.0
131670.0
132553.0
132323.0
131456.0
130612.0
130303.0
130686.0
133059.0
132671.0
132141.0
131780.0
131768.0
132085.0
132545.0
132912.0
133020.0
132849.0
132522.0
132221.0
132098.0
132209.0
132493.0
132823.0
133068.0
133152.0
133074.0
132888.0
132670.0
132483.0
132348.0
132265.0
132244.0
132340.0
132501.0
132717.0
132962.0
133205.0
133429.0
133631.0
134564.0
134846.0
135109.0
135335.0
135523.0
135684.0
135840.0
136009.0
136193.0
136513.0
136300.0
135936.0
135455.0
134891.0
134301.0
133733.0
133224.0
132796.0
132447.0
132172.0
131956.0
131799.0
131994.0
132244.0
132520.0
132788.0
133515.0
133533.0
133533.0
133482.0
133441.0
133410.0
133402.0
133431.0
133499.0
133594.0
133696.0
133781.0
133829.0
133830.0
133786.0
133717.0
133644.0
133589.0
133558.0
133541.0
133513.0
133447.0
133329.0
133170.0
132997.0
132854.0
132771.0
132758.0
132791.0
132823.0
132814.0
132748.0
132659.0
132622.0
132722.0
133019.0
133508.0
134121.0
135494.0
135530.0
135367.0
135065.0
134663.0
134172.0
133572.0
132853.0
132062.0
131305.0
130722.0
130420.0
130408.0
130575.0
130723.0
130665.0
130328.0
129808.0
129335.0
129159.0
129403.0
129963.0
130535.0
130764.0
130464.0
129799.0
129316.0
129777.0
131835.0
135675.0
140804.0
146089.0
150088.0
151540.0
149854.0
145357.0
139222.0
133075.0
128431.0
126198.0
126421.0
128364.0
130879.0
132880.0
133732.0
133409.0
132375.0
131296.0
130706.0
130794.0
131390.0
132105.0
132571.0
132602.0
132271.0
131824.0
131533.0
131555.0
131859.0
132275.0
132592.0
132675.0
132530.0
132274.0
132078.0
132067.0
132260.0
132582.0
132908.0
133129.0
133213.0
133194.0
133156.0
133173.0
133271.0
133428.0
133589.0
133699.0
133743.0
133740.0
133737.0
133781.0
133894.0
134064.0
134635.0
134807.0
134988.0
135195.0
135429.0
135673.0
136273.0
136419.0
136566.0
136728.0
136901.0
137054.0
137144.0
137120.0
136956.0
136643.0
136201.0
135665.0
135079.0
134479.0
133891.0
133336.0
132825.0
132366.0
131968.0
131641.0
131391.0
131216.0
131111.0
131062.0
131057.0
131084.0
131139.0
131220.0
131327.0
131458.0
131606.0
132095.0
132258.0
132414.0
132564.0
132707.0
133129.0
133208.0
133289.0
133372.0
133446.0
133497.0
133510.0
133484.0
133433.0
133384.0
133367.0
133394.0
133457.0
133525.0
133556.0
133529.0
133459.0
133399.0
133422.0
133596.0
133942.0
134417.0
134922.0
135333.0
135555.0
135545.0
135330.0
134978.0
134559.0
134109.0
133622.0
133070.0
132452.0
131820.0
131276.0
130936.0
130856.0
130994.0
131206.0
131305.0
131160.0
130774.0
130296.0
130334.0
130875.0
131270.0
131248.0
130777.0
130185.0
130100.0
131216.0
133956.0
138189.0
143135.0
147537.0
150062.0
149789.0
146582.0
141189.0
125504.0
126847.0
129369.0
131902.0
133534.0
133901.0
133226.0
132101.0
131177.0
130865.0
131201.0
131907.0
132579.0
132901.0
132784.0
132371.0
131935.0
131713.0
131802.0
132126.0
132498.0
132735.0
132750.0
132580.0
132270.0
132467.0
132729.0
132948.0
133053.0
133043.0
132979.0
132935.0
132966.0
133077.0
133229.0
133366.0
133451.0
133482.0
133496.0
133539.0
133644.0
133817.0
134038.0
134271.0
134491.0
134696.0
134898.0
135119.0
135378.0
135664.0
135964.0
136243.0
136483.0
137223.0
137292.0
137272.0
137127.0
136833.0
134611.0
134005.0
133448.0
132953.0
132521.0
132149.0
131842.0
131603.0
131436.0
131343.0
131510.0
131610.0
131713.0
132204.0
132362.0
132524.0
132678.0
132814.0
132925.0
133009.0
133066.0
133107.0
133145.0
133192.0
133250.0
133310.0
133354.0
133320.0
133238.0
133138.0
133054.0
133017.0
133177.0
133227.0
133239.0
133240.0
133287.0
133447.0
133762.0
134220.0
134747.0
135231.0
135559.0
135662.0
135538.0
135241.0
134847.0
134406.0
133932.0
133404.0
132802.0
132153.0
131543.0
131091.0
130893.0
130952.0
131354.0
131341.0
131063.0
130607.0
130189.0
131407.0
131093.0
130482.0
130111.0
130691.0
132806.0
136564.0
141428.0
146269.0
149704.0
150580.0
148427.0
143674.0
137551.0
131672.0
127475.0
125760.0
126449.0
128723.0
131392.0
133382.0
134112.0
133627.0
132455.0
131299.0
132756.0
132772.0
132396.0
131892.0
131525.0
131809.0
132226.0
132557.0
132660.0
132529.0
132280.0
132076.0
132036.0
132187.0
132455.0
132720.0
132885.0
132916.0
132857.0
132793.0
132798.0
132898.0
133071.0
133252.0
133388.0
133495.0
133563.0
133706.0
133912.0
134156.0
134403.0
134633.0
134849.0
135063.0
135293.0
135542.0
135804.0
136062.0
136302.0
136516.0
136711.0
136894.0
137072.0
137234.0
137354.0
137389.0
137302.0
137067.0
136684.0
136176.0
135581.0
134948.0
134319.0
133730.0
133203.0
132749.0
132366.0
132054.0
131804.0
131618.0
131487.0
131413.0
131391.0
131415.0
131481.0
131582.0
131710.0
131857.0
132019.0
132187.0
132351.0
132503.0
132635.0
132747.0
132836.0
132907.0
132968.0
133028.0
133097.0
133173.0
133241.0
133285.0
133287.0
133246.0
133173.0
133099.0
133058.0
133076.0
133154.0
133268.0
133379.0
133453.0
133486.0
133508.0
133580.0
133764.0
134091.0
134533.0
135634.0
135629.0
135408.0
135033.0
134573.0
134073.0
133542.0
132961.0
132329.0
131692.0
131146.0
130801.0
130722.0
131263.0
131173.0
130824.0
130353.0
129995.0
129954.0
130279.0
130815.0
131247.0
131285.0
130862.0
130267.0
130101.0
147293.0
150104.0
150178.0
147289.0
142104.0
127223.0
129648.0
132131.0
133732.0
134057.0
133310.0
132095.0
131087.0
130723.0
131052.0
131789.0
132504.0
132851.0
132726.0
132268.0
131764.0
131473.0
131518.0
131822.0
132199.0
132451.0
132476.0
132308.0
132077.0
131935.0
131969.0
132170.0
132443.0
132675.0
132789.0
132784.0
132723.0
132692.0
132747.0
132895.0
133095.0
133282.0
133413.0
133480.0
133687.0
133867.0
134097.0
134344.0
134577.0
135206.0
135437.0
135687.0
135941.0
136180.0
136395.0
136586.0
136767.0
136943.0
137117.0
137264.0
137346.0
137317.0
137145.0
136818.0
136362.0
135809.0
135213.0
134611.0
134037.0
133505.0
133018.0
132580.0
132198.0
131882.0
131646.0
131443.0
131464.0
131541.0
131647.0
131763.0
131872.0
131973.0
132071.0
132177.0
132293.0
132419.0
132549.0
132672.0
132781.0
132865.0
132925.0
132971.0
133011.0
133055.0
133101.0
133139.0
133157.0
133142.0
133099.0
133040.0
133215.0
133310.0
133380.0
133432.0
133511.0
133673.0
133957.0
134362.0
134837.0
135285.0
135606.0
135727.0
135629.0
135348.0
134949.0
134481.0
133972.0
133413.0
132788.0
132124.0
131495.0
130778.0
130963.0
131150.0
131164.0
130917.0
130470.0
130019.0
129792.0
129936.0
130397.0
130931.0
131210.0
131031.0
130487.0
130031.0
130346.0
132061.0
135425.0
140065.0
144989.0
148860.0
150446.0
149088.0
144991.0
139192.0
133228.0
128600.0
126274.0
126384.0
128281.0
130845.0
132966.0
133944.0
132620.0
131436.0
130723.0
130740.0
131354.0
132177.0
132787.0
132936.0
132641.0
132133.0
131712.0
131588.0
131787.0
132171.0
132525.0
131999.0
132089.0
132328.0
132605.0
132813.0
132901.0
132888.0
132851.0
132864.0
132966.0
133150.0
133359.0
133540.0
133659.0
133720.0
133761.0
133824.0
133932.0
134092.0
134280.0
134470.0
134647.0
134815.0
134984.0
135175.0
135390.0
135623.0
135857.0
136078.0
136275.0
136457.0
136972.0
137106.0
137167.0
137112.0
136910.0
136560.0
136077.0
135503.0
134885.0
134269.0
133692.0
133179.0
132739.0
131841.0
131667.0
131552.0
131494.0
131491.0
131541.0
131635.0
131762.0
131907.0
132057.0
132199.0
132328.0
132444.0
132549.0
132653.0
132759.0
132870.0
132982.0
133085.0
133170.0
133229.0
133263.0
133282.0
133297.0
133313.0
133326.0
133320.0
133283.0
133210.0
133111.0
133018.0
132964.0
132973.0
133048.0
133161.0
133272.0
133408.0
133502.0
133724.0
134100.0
134594.0
135112.0
135528.0
135739.0
135691.0
135411.0
134973.0
134464.0
133937.0
133401.0
132837.0
132237.0
131638.0
131131.0
130824.0
130770.0
130935.0
131176.0
131309.0
131194.0
130822.0
130343.0
129994.0
129977.0
130337.0
130897.0
131339.0
131372.0
130941.0
130347.0
130207.0
131217.0
133830.0
137957.0
142850.0
147278.0
149910.0
149804.0
146794.0
141599.0
135595.0
130353.0
127094.0
126296.0
127596.0
130020.0
134037.0
133196.0
131958.0
130985.0
130686.0
131079.0
131857.0
132587.0
132930.0
132797.0
132337.0
131838.0
131559.0
131608.0
131914.0
132291.0
132546.0
132584.0
132436.0
132230.0
132110.0
132155.0
132356.0
132622.0
132847.0
132958.0
132958.0
132905.0
132876.0
132931.0
133672.0
133708.0
133743.0
133816.0
133944.0
134116.0
134706.0
134895.0
135084.0
135278.0
135474.0
135661.0
135998.0
136160.0
136332.0
136521.0
136716.0
136895.0
137012.0
137025.0
136899.0
136624.0
136215.0
135707.0
135144.0
134571.0
134022.0
133524.0
133085.0
132707.0
132391.0
132130.0
131651.0
131668.0
131728.0
131823.0
131942.0
132077.0
132216.0
132354.0
132482.0
132598.0
132701.0
132795.0
132887.0
133379.0
133422.0
133424.0
133387.0
133328.0
133274.0
133243.0
133238.0
133195.0
133109.0
132992.0
132880.0
132812.0
132820.0
132899.0
133022.0
133139.0
133218.0
133260.0
133303.0
133415.0
133660.0
134058.0
134562.0
135073.0
135464.0
135642.0
135571.0
135286.0
134864.0
134383.0
133885.0
133361.0
132788.0
132166.0
131548.0
131043.0
130760.0
130752.0
130960.0
131224.0
131347.0
131196.0
130790.0
130298.0
129973.0
130988.0
131378.0
131314.0
130791.0
130177.0
130145.0
131404.0
150661.0
150122.0
146628.0
141036.0
134830.0
129611.0
126554.0
126036.0
127580.0
130128.0
132495.0
133827.0
133857.0
130674.0
130426.0
130853.0
131616.0
132282.0
132545.0
132348.0
131876.0
131424.0
131235.0
131384.0
131772.0
132194.0
132464.0
132500.0
132356.0
132173.0
132093.0
132184.0
132421.0
132703.0
132922.0
133014.0
132994.0
132923.0
132885.0
132927.0
133050.0
133206.0
133343.0
133432.0
133478.0
133520.0
133605.0
133760.0
133981.0
134235.0
134479.0
134681.0
134839.0
134969.0
135104.0
135261.0
135448.0
135652.0
135848.0
136020.0
136160.0
136277.0
136385.0
136494.0
136688.0
136596.0
136380.0
136038.0
135591.0
133987.0
133492.0
133052.0
132671.0
132351.0
132086.0
131663.0
131752.0
131881.0
132032.0
132484.0
132608.0
132713.0
132808.0
132894.0
132977.0
133139.0
133212.0
133272.0
133308.0
133325.0
133328.0
133325.0
133321.0
133319.0
133311.0
133286.0
133238.0
133178.0
133122.0
133097.0
133119.0
133190.0
133290.0
133382.0
133437.0
133450.0
133455.0
133516.0
133696.0
134030.0
134497.0
135013.0
135461.0
135731.0
135761.0
135556.0
135179.0
134708.0
134202.0
133679.0
133125.0
132536.0
131939.0
131416.0
131071.0
130970.0
131095.0
131325.0
131482.0
131420.0
131105.0
130653.0
130283.0
130200.0
130470.0
130957.0
131363.0
131391.0
130943.0
130265.0
129929.0
130641.0
132918.0
136785.0
141615.0
146248.0
149338.0
149835.0
147399.0
142574.0
136628.0
131127.0
127396.0
126090.0
127020.0
129316.0
131829.0
133577.0
134088.0
133486.0
132324.0
131714.0
132443.0
132857.0
132815.0
132418.0
131934.0
131633.0
131653.0
131951.0
132355.0
132753.0
132637.0
132432.0
132288.0
132310.0
132504.0
132794.0
133061.0
133215.0
133232.0
133162.0
133085.0
133074.0
133158.0
133310.0
133477.0
133608.0
133682.0
133715.0
133744.0
133812.0
133942.0
134125.0
134337.0
134919.0
135081.0
135241.0
135405.0
135568.0
135727.0
136125.0
136244.0
136362.0
136468.0
136542.0
136462.0
136258.0
135939.0
135519.0
135030.0
134508.0
133990.0
133504.0
133077.0
132715.0
132423.0
132199.0
132038.0
131934.0
131882.0
131876.0
131914.0
131986.0
132332.0
132458.0
132578.0
132688.0
132792.0
132894.0
132996.0
133099.0
133202.0
133298.0
133382.0
133450.0
133498.0
133528.0
133543.0
133546.0
133539.0
133521.0
133488.0
133442.0
133385.0
133328.0
133278.0
133238.0
133201.0
133153.0
133078.0
132976.0
132858.0
132677.0
132671.0
132728.0
132823.0
132921.0
132994.0
133044.0
133109.0
133252.0
133530.0
133961.0
134502.0
135057.0
135506.0
135753.0
135536.0
135176.0
134742.0
134275.0
133767.0
133194.0
132553.0
131894.0
131330.0
131505.0
131408.0
131044.0
130562.0
130182.0
130528.0
131065.0
131464.0
131426.0
130901.0
130206.0
129977.0
130940.0
142773.0
147342.0
150100.0
150084.0
147107.0
141889.0
135821.0
130498.0
127157.0
126296.0
127561.0
129972.0
132360.0
133824.0
134019.0
133191.0
131956.0
130980.0
130668.0
131040.0
131794.0
132501.0
132832.0
132703.0
132265.0
131807.0
131579.0
131678.0
132023.0
132669.0
132687.0
132510.0
132273.0
132127.0
132155.0
132342.0
132598.0
132810.0
132913.0
132908.0
132859.0
132844.0
132915.0
133079.0
133289.0
133487.0
133628.0
133709.0
133758.0
133817.0
134255.0
134437.0
134597.0
134734.0
135372.0
135572.0
135754.0
135906.0
136027.0
136132.0
136239.0
136361.0
136487.0
136592.0
136633.0
136570.0
136378.0
136056.0
135624.0
135119.0
134581.0
134052.0
133564.0
133134.0
132767.0
132053.0
131938.0
131879.0
131872.0
131907.0
131977.0
132068.0
132174.0
132289.0
132409.0
132535.0
132660.0
132784.0
132902.0
133010.0
133107.0
133195.0
133275.0
133348.0
133412.0
133462.0
133500.0
133520.0
133528.0
133529.0
133470.0
133412.0
133334.0
133245.0
133161.0
133095.0
133048.0
133011.0
132968.0
132908.0
132831.0
132753.0
132707.0
132716.0
132787.0
132908.0
133042.0
133302.0
133406.0
133605.0
133936.0
134385.0
134881.0
135317.0
135595.0
135654.0
134772.0
134318.0
133829.0
133280.0
132664.0
132016.0
131427.0
131018.0
130872.0
130989.0
131244.0
131453.0
131445.0
131164.0
130708.0
130298.0
130160.0
130392.0
130887.0
131354.0
131479.0
132711.0
136396.0
141143.0
145845.0
147872.0
143293.0
137444.0
131875.0
127953.0
126404.0
127122.0
129292.0
131774.0
133564.0
134140.0
133582.0
132419.0
131325.0
130800.0
130986.0
131663.0
132418.0
132877.0
132866.0
131620.0
131589.0
131850.0
132242.0
132559.0
132668.0
132567.0
132363.0
132207.0
132666.0
132938.0
133112.0
133160.0
133124.0
133081.0
133101.0
133211.0
133387.0
133576.0
133731.0
133828.0
133880.0
133924.0
133993.0
134107.0
134259.0
134426.0
134584.0
134726.0
134855.0
134989.0
135139.0
135304.0
135778.0
135895.0
136000.0
136109.0
136230.0
136363.0
136485.0
136562.0
136552.0
136424.0
136168.0
135789.0
135316.0
134786.0
134242.0
133724.0
133262.0
132873.0
132561.0
132321.0
132141.0
132013.0
131923.0
131869.0
131976.0
132079.0
132204.0
132342.0
132484.0
132620.0
132743.0
132851.0
132945.0
133030.0
133112.0
133195.0
133284.0
133373.0
133451.0
133510.0
133540.0
133539.0
133508.0
133463.0
133412.0
133369.0
133341.0
133326.0
133315.0
133294.0
133261.0
133104.0
133086.0
133064.0
133023.0
132960.0
132883.0
132818.0
132793.0
132824.0
132904.0
133007.0
133094.0
133146.0
133169.0
133212.0
133337.0
134520.0
135027.0
135418.0
135612.0
135581.0
135358.0
135012.0
134602.0
134152.0
133649.0
133072.0
132434.0
131802.0
131291.0
131005.0
130979.0
131141.0
131325.0
131353.0
131124.0
130690.0
130241.0
130016.0
131193.0
130511.0
129847.0
129920.0
131429.0
134688.0
139383.0
144542.0
148790.0
150807.0
149831.0
145970.0
140212.0
134096.0
129185.0
126537.0
126378.0
128115.0
130646.0
132828.0
133907.0
133733.0
132704.0
131496.0
131201.0
131976.0
132558.0
132692.0
132388.0
131877.0
131468.0
131376.0
131631.0
132087.0
132517.0
132739.0
132703.0
132496.0
132287.0
132228.0
132376.0
132679.0
133009.0
133241.0
133309.0
133235.0
133106.0
133022.0
133045.0
133177.0
133363.0
133537.0
133649.0
133695.0
133711.0
133747.0
133844.0
134007.0
134219.0
134435.0
134625.0
134773.0
134890.0
135001.0
135128.0
135281.0
135454.0
135630.0
135789.0
135921.0
136282.0
136337.0
136340.0
136256.0
136058.0
135740.0
135312.0
132819.0
132476.0
132202.0
131982.0
131808.0
131675.0
131589.0
131557.0
131585.0
131672.0
131807.0
131977.0
132158.0
132334.0
132498.0
132645.0
132779.0
133150.0
133259.0
133359.0
133442.0
133512.0
133568.0
133641.0
133656.0
133651.0
133624.0
133577.0
133520.0
133470.0
133437.0
133424.0
133424.0
133413.0
133367.0
133277.0
133149.0
133014.0
132913.0
132882.0
132931.0
133039.0
133163.0
133255.0
133295.0
133300.0
133329.0
133454.0
133729.0
134150.0
134656.0
135656.0
135599.0
135365.0
135018.0
134599.0
134114.0
133546.0
132891.0
132191.0
131548.0
131093.0
130920.0
131031.0
131303.0
131539.0
131554.0
131276.0
130801.0
130354.0
130187.0
130417.0
130953.0
131501.0
131711.0
131399.0
130713.0
130173.0
130507.0
132338.0
135851.0
140579.0
145444.0
149076.0
150282.0
148515.0
144109.0
138207.0
132377.0
128069.0
126135.0
126581.0
128664.0
131240.0
133243.0
134056.0
133667.0
132560.0
131407.0
130754.0
130806.0
131393.0
132127.0
132618.0
132671.0
132340.0
131865.0
131531.0
131511.0
131797.0
132237.0
132618.0
132792.0
132737.0
132551.0
132385.0
132361.0
132512.0
132779.0
133050.0
133241.0
133185.0
133188.0
133283.0
133451.0
133638.0
133792.0
133885.0
133933.0
133974.0
134054.0
134193.0
134386.0
134600.0
134801.0
134961.0
135079.0
135169.0
135253.0
135353.0
135471.0
135603.0
135737.0
135863.0
136457.0
136517.0
136492.0
136356.0
136092.0
135711.0
134172.0
133668.0
133224.0
132850.0
132126.0
131987.0
131889.0
131836.0
131827.0
131861.0
131933.0
132036.0
132160.0
132297.0
132441.0
132592.0
132749.0
132909.0
133068.0
133217.0
133345.0
133449.0
133525.0
133575.0
133605.0
133626.0
133639.0
133649.0
133653.0
133647.0
133633.0
133609.0
133580.0
133549.0
133517.0
133483.0
133441.0
133386.0
133318.0
133240.0
133166.0
133112.0
133085.0
133080.0
133082.0
133067.0
133022.0
132948.0
132866.0
132803.0
133094.0
133124.0
133142.0
133206.0
134175.0
134706.0
135191.0
135522.0
135635.0
135535.0
135273.0
134921.0
134523.0
134081.0
133565.0
132956.0
132285.0
131648.0
131175.0
130972.0
131042.0
131280.0
131491.0
131492.0
130272.0
130078.0
130271.0
130755.0
131254.0
131435.0
131129.0
130500.0
130070.0
130557.0
132559.0
136225.0
141054.0
145953.0
149549.0
150676.0
148818.0
132637.0
128392.0
126511.0
126965.0
128988.0
131447.0
133296.0
133964.0
133474.0
132333.0
131213.0
132717.0
132756.0
132402.0
131903.0
131544.0
131492.0
131738.0
132128.0
132460.0
132595.0
132526.0
132348.0
132207.0
132631.0
132873.0
133015.0
133033.0
132975.0
132924.0
133593.0
133673.0
133706.0
133735.0
133938.0
134121.0
134328.0
134524.0
134692.0
134830.0
134955.0
135086.0
135233.0
135394.0
135562.0
135728.0
135887.0
136040.0
136194.0
136349.0
136496.0
136615.0
136674.0
136641.0
136500.0
136245.0
135886.0
135450.0
134964.0
134456.0
133956.0
133488.0
133067.0
132707.0
132415.0
132193.0
132036.0
131940.0
131896.0
131894.0
131930.0
131995.0
132085.0
132194.0
132318.0
132443.0
132568.0
132873.0
132954.0
133032.0
133112.0
133195.0
133281.0
133367.0
133444.0
133507.0
133553.0
133579.0
133586.0
133577.0
133559.0
133531.0
133504.0
133483.0
133465.0
133451.0
133434.0
133410.0
133369.0
133309.0
133233.0
133156.0
133091.0
133047.0
133022.0
133003.0
132974.0
132921.0
132847.0
132770.0
132718.0
132712.0
132764.0
132855.0
132953.0
133024.0
133061.0
133089.0
133165.0
133355.0
133693.0
134170.0
134713.0
135212.0
135562.0
135702.0
135628.0
135388.0
135046.0
134646.0
134188.0
133649.0
133024.0
132344.0
131712.0
131250.0
131050.0
131110.0
131316.0
131485.0
131444.0
131140.0
130674.0
130259.0
130122.0
130355.0
130847.0
131310.0
131434.0
131081.0
130454.0
130094.0
130704.0
146048.0
149332.0
150106.0
147957.0
143344.0
137478.0
128015.0
126486.0
127207.0
129361.0
131806.0
133552.0
134088.0
132350.0
131281.0
130795.0
131021.0
131730.0
132510.0
132982.0
132990.0
132620.0
132133.0
131805.0
131787.0
132046.0
132417.0
132699.0
132767.0
132628.0
132395.0
132218.0
132205.0
132365.0
132620.0
132853.0
132975.0
132968.0
132880.0
132800.0
132797.0
132899.0
133075.0
133272.0
133671.0
133780.0
133947.0
134156.0
134381.0
134588.0
134762.0
134907.0
135040.0
135180.0
135338.0
135510.0
135684.0
135850.0
135999.0
136140.0
136277.0
136415.0
136545.0
136648.0
136690.0
136638.0
136471.0
136186.0
135791.0
135316.0
134789.0
134247.0
133718.0
133231.0
132800.0
132439.0
132154.0
131943.0
131803.0
131723.0
131697.0
131714.0
131766.0
131843.0
131943.0
132188.0
132328.0
132473.0
132617.0
132754.0
133277.0
133364.0
133451.0
133537.0
133676.0
133711.0
133714.0
133690.0
133647.0
133596.0
133551.0
133518.0
133497.0
133480.0
133454.0
133411.0
133178.0
133145.0
133109.0
133057.0
132978.0
132882.0
132793.0
132746.0
132763.0
132839.0
132947.0
133038.0
133074.0
133050.0
133006.0
133022.0
133175.0
133510.0
134004.0
134567.0
135074.0
135411.0
135520.0
135409.0
134358.0
133880.0
133313.0
132649.0
131942.0
131305.0
130872.0
130725.0
130841.0
131074.0
131224.0
131131.0
130771.0
130287.0
129923.0
129901.0
130272.0
130859.0
131324.0
131349.0
130814.0
133445.0
137736.0
142948.0
147793.0
150846.0
151055.0
148163.0
125926.0
127032.0
129440.0
131943.0
133567.0
130694.0
131408.0
132118.0
132480.0
132383.0
131403.0
131783.0
132239.0
132573.0
132671.0
132564.0
132376.0
132255.0
132293.0
132483.0
132740.0
132958.0
133064.0
133056.0
132991.0
132948.0
132986.0
133110.0
133280.0
133441.0
133547.0
133593.0
133613.0
133654.0
133753.0
133921.0
134141.0
134380.0
134603.0
134803.0
134980.0
135150.0
135325.0
135502.0
135676.0
135826.0
135946.0
136039.0
136117.0
136200.0
136292.0
136392.0
136475.0
136497.0
136421.0
136224.0
134959.0
134417.0
133881.0
133381.0
132939.0
132560.0
132248.0
131995.0
131806.0
131677.0
131646.0
131735.0
131852.0
131978.0
132103.0
132222.0
132337.0
132457.0
132589.0
132734.0
132888.0
133045.0
133191.0
133314.0
133411.0
133482.0
133534.0
133571.0
133596.0
133608.0
133605.0
133583.0
133544.0
133500.0
133467.0
133420.0
133325.0
133202.0
133084.0
133013.0
133298.0
133346.0
133340.0
133321.0
133363.0
133537.0
133874.0
134342.0
134849.0
135562.0
135388.0
135069.0
134669.0
134221.0
133717.0
133138.0
132489.0
131833.0
131281.0
130950.0
130895.0
131067.0
131309.0
131433.0
131306.0
130938.0
130485.0
130187.0
130227.0
130616.0
131151.0
131505.0
131416.0
130874.0
130237.0
130150.0
131308.0
143282.0
147567.0
149916.0
149462.0
146141.0
140763.0
134752.0
129665.0
126657.0
126120.0
127616.0
130136.0
132523.0
133932.0
134074.0
133234.0
132036.0
131121.0
130862.0
131254.0
131988.0
132649.0
132934.0
132778.0
132348.0
131920.0
131730.0
131858.0
132831.0
132835.0
132660.0
132440.0
132325.0
132388.0
132606.0
132886.0
133110.0
133211.0
133185.0
133093.0
133022.0
133029.0
133127.0
133287.0
133454.0
133588.0
133741.0
133810.0
133919.0
134069.0
134254.0
134451.0
134646.0
134833.0
135022.0
135643.0
135845.0
136020.0
136165.0
136282.0
136392.0
136507.0
136634.0
136757.0
136840.0
136840.0
136715.0
136444.0
136037.0
135517.0
134934.0
134341.0
133779.0
133286.0
132872.0
132536.0
132271.0
132060.0
131899.0
131782.0
131714.0
131693.0
131722.0
131797.0
131906.0
132039.0
132183.0
132331.0
132479.0
132626.0
132773.0
132923.0
133074.0
133223.0
133362.0
133488.0
133592.0
133671.0
133722.0
133747.0
133751.0
133742.0
133725.0
133711.0
133703.0
133700.0
133693.0
133673.0
133631.0
133559.0
133457.0
133340.0
133223.0
133130.0
133075.0
133048.0
133032.0
133002.0
132934.0
132830.0
132709.0
132608.0
132560.0
132586.0
132674.0
132791.0
132895.0
132964.0
133012.0
133090.0
133262.0
133576.0
135079.0
135462.0
135640.0
135601.0
135386.0
133030.0
132337.0
131675.0
131170.0
131171.0
131373.0
131389.0
131131.0
130680.0
130238.0
130045.0
130222.0
130690.0
131176.0
131352.0
131044.0
130401.0
132284.0
135900.0
140736.0
145712.0
149454.0
150761.0
149067.0
144695.0
138788.0
132918.0
128550.0
126545.0
126921.0
128934.0
131439.0
133366.0
134101.0
133644.0
132488.0
131319.0
130688.0
130780.0
132289.0
131766.0
131399.0
131371.0
132547.0
132324.0
132140.0
132125.0
132307.0
132610.0
132906.0
133083.0
133102.0
133004.0
132889.0
132851.0
133599.0
133745.0
133820.0
133857.0
133904.0
134001.0
134149.0
134337.0
134536.0
135077.0
135259.0
135458.0
135671.0
135885.0
136085.0
136263.0
136415.0
136548.0
136665.0
136762.0
136829.0
136836.0
136758.0
136574.0
136280.0
135889.0
135423.0
134912.0
134382.0
133862.0
133370.0
132919.0
132519.0
132182.0
131916.0
131728.0
131624.0
131599.0
131730.0
131845.0
131964.0
132071.0
132163.0
132394.0
132483.0
132587.0
132701.0
132818.0
133285.0
133355.0
133423.0
133487.0
133543.0
133585.0
133596.0
133557.0
133492.0
133409.0
133317.0
133231.0
133171.0
133147.0
133161.0
133198.0
133237.0
133248.0
133213.0
133128.0
133010.0
132893.0
132811.0
132786.0
132820.0
132890.0
132966.0
133032.0
133104.0
133222.0
133443.0
133802.0
134294.0
134857.0
135388.0
135776.0
135946.0
135880.0
135620.0
135231.0
134768.0
134256.0
133681.0
133034.0
132343.0
131687.0
131181.0
130925.0
130935.0
131336.0
131087.0
130628.0
130160.0
129914.0
130035.0
130464.0
130956.0
131183.0
130948.0
135353.0
140076.0
145095.0
149062.0
150740.0
149469.0
145451.0
139723.0
133807.0
129197.0
126849.0
126899.0
128703.0
131160.0
133181.0
134076.0
133759.0
132664.0
131458.0
130724.0
130712.0
131291.0
132082.0
132665.0
131569.0
131435.0
131623.0
132003.0
132370.0
132562.0
132533.0
132359.0
132181.0
132125.0
132234.0
132462.0
132707.0
132873.0
132922.0
132882.0
132827.0
132834.0
132938.0
133124.0
133335.0
133516.0
133632.0
133693.0
133735.0
133805.0
133933.0
134816.0
135022.0
135212.0
135400.0
135593.0
135792.0
135989.0
136178.0
136353.0
136523.0
136687.0
136846.0
136987.0
137088.0
137113.0
137030.0
136019.0
135480.0
134895.0
134304.0
133741.0
133228.0
132784.0
132414.0
132122.0
131636.0
131643.0
131682.0
131744.0
131830.0
131934.0
132059.0
132202.0
132357.0
132519.0
132677.0
132825.0
132954.0
133061.0
133148.0
133220.0
133285.0
133343.0
133398.0
133449.0
133491.0
133521.0
133529.0
133518.0
133490.0
133454.0
133422.0
133401.0
133398.0
133410.0
133423.0
133429.0
133414.0
133370.0
133307.0
133242.0
133195.0
133180.0
133193.0
133215.0
133223.0
133196.0
133133.0
133058.0
132998.0
132988.0
133199.0
133232.0
133202.0
133137.0
133104.0
133181.0
133423.0
133828.0
134327.0
134810.0
135161.0
135313.0
135251.0
135024.0
134689.0
134289.0
133825.0
133274.0
132627.0
131929.0
131288.0
130838.0
130673.0
130788.0
131056.0
131271.0
131254.0
130944.0
131223.0
131377.0
131005.0
130419.0
132592.0
136495.0
141565.0
146627.0
150260.0
151278.0
149202.0
144471.0
138332.0
132409.0
128150.0
126340.0
126896.0
128997.0
131466.0
133260.0
133834.0
133254.0
132056.0
130931.0
131247.0
131999.0
132446.0
132426.0
132041.0
131567.0
131292.0
131362.0
131736.0
132215.0
132573.0
132667.0
132510.0
132236.0
132033.0
132032.0
133325.0
133257.0
133139.0
133062.0
133302.0
133414.0
133481.0
133514.0
133548.0
133627.0
133779.0
133991.0
134235.0
134473.0
134849.0
135002.0
135158.0
135337.0
135541.0
135763.0
135983.0
136733.0
136801.0
136819.0
136763.0
136611.0
136352.0
135987.0
135530.0
135004.0
134445.0
133887.0
133367.0
132908.0
132527.0
132229.0
132012.0
131861.0
131766.0
131691.0
131700.0
131737.0
131807.0
131910.0
132043.0
132201.0
132371.0
132539.0
132693.0
132933.0
133018.0
133088.0
133150.0
133209.0
133268.0
133319.0
133359.0
133381.0
133383.0
133367.0
133337.0
133306.0
133290.0
133298.0
133327.0
133361.0
133380.0
133361.0
133296.0
133193.0
133086.0
133009.0
132994.0
133042.0
133217.0
133220.0
133335.0
133606.0
134506.0
134952.0
135252.0
135348.0
135242.0
134984.0
134636.0
134236.0
133779.0
133236.0
132595.0
131901.0
131259.0
130808.0
130643.0
130764.0
131040.0
131268.0
131259.0
130950.0
130447.0
129987.0
129818.0
130054.0
130589.0
129907.0
130441.0
132538.0
136328.0
146233.0
149811.0
150832.0
148793.0
144105.0
137977.0
132013.0
127664.0
125750.0
130943.0
132944.0
133770.0
133425.0
132388.0
131319.0
131424.0
132137.0
132610.0
132670.0
132384.0
131984.0
131727.0
131761.0
132061.0
132469.0
132791.0
132902.0
132798.0
132587.0
132414.0
132388.0
132528.0
132767.0
132998.0
133133.0
133149.0
133084.0
133011.0
133001.0
133075.0
133217.0
133375.0
133662.0
133740.0
133865.0
134048.0
134278.0
134524.0
134756.0
134959.0
135138.0
135307.0
135483.0
135670.0
135862.0
136047.0
136213.0
136354.0
136479.0
136595.0
136709.0
136813.0
136883.0
136884.0
136776.0
136537.0
136162.0
135670.0
135101.0
134502.0
133923.0
133404.0
132969.0
132618.0
132347.0
132131.0
131958.0
131818.0
131709.0
131639.0
131618.0
131654.0
131743.0
131876.0
132036.0
132207.0
132375.0
132536.0
132685.0
132833.0
132975.0
133111.0
133233.0
133470.0
133504.0
133526.0
133537.0
133539.0
133532.0
133510.0
133423.0
133384.0
133364.0
133371.0
133395.0
133415.0
133411.0
133371.0
133299.0
133220.0
133166.0
133159.0
133200.0
133270.0
133337.0
133379.0
134241.0
134737.0
135219.0
135576.0
135721.0
133571.0
132993.0
132335.0
131659.0
131086.0
130743.0
130691.0
130878.0
131141.0
131283.0
131163.0
130792.0
130337.0
130043.0
130097.0
130502.0
131045.0
131387.0
131265.0
130685.0
130037.0
130004.0
131296.0
134307.0
138827.0
143969.0
148397.0
150757.0
146644.0
141026.0
134823.0
129639.0
126632.0
126160.0
127729.0
130272.0
132613.0
133913.0
133926.0
130667.0
131132.0
131904.0
132575.0
132112.0
131699.0
131564.0
131765.0
132174.0
132578.0
132786.0
132731.0
132489.0
132227.0
132103.0
132190.0
132451.0
132772.0
133022.0
133127.0
133094.0
133277.0
133448.0
133565.0
133710.0
133831.0
134027.0
134278.0
134543.0
134786.0
134994.0
135171.0
135334.0
135508.0
135701.0
135911.0
136128.0
136340.0
136537.0
136715.0
136873.0
137003.0
137088.0
137104.0
137022.0
136817.0
136483.0
133731.0
133215.0
132772.0
132409.0
131775.0
131697.0
131675.0
131703.0
131767.0
131861.0
131970.0
132088.0
132211.0
132335.0
132462.0
132591.0
132717.0
132833.0
132934.0
133014.0
133076.0
133127.0
133180.0
133248.0
133340.0
133655.0
133706.0
133704.0
133649.0
133557.0
133454.0
133373.0
133328.0
133319.0
133324.0
133312.0
133257.0
133155.0
133024.0
132905.0
132838.0
133051.0
133167.0
133250.0
133305.0
133378.0
133533.0
133826.0
134263.0
134790.0
135303.0
135685.0
135848.0
135767.0
135483.0
134095.0
133548.0
132934.0
132260.0
131591.0
131043.0
130729.0
130699.0
130889.0
131133.0
131239.0
131080.0
129906.0
129948.0
130327.0
130823.0
131113.0
129928.0
131413.0
134617.0
139282.0
144491.0
148896.0
151158.0
150453.0
146802.0
129791.0
126860.0
126448.0
128038.0
130552.0
132827.0
134045.0
133984.0
132993.0
131737.0
130852.0
130678.0
131156.0
131931.0
132791.0
132550.0
132051.0
131589.0
131401.0
131549.0
131918.0
132299.0
132508.0
132477.0
132271.0
132039.0
131925.0
132002.0
132234.0
132519.0
132743.0
132844.0
132833.0
132778.0
132760.0
132830.0
133580.0
133637.0
133718.0
133854.0
134051.0
134292.0
134543.0
134781.0
134995.0
135189.0
135372.0
135558.0
135744.0
136297.0
136488.0
136685.0
136887.0
137069.0
137198.0
137234.0
137141.0
136903.0
136530.0
136045.0
135496.0
134919.0
134351.0
132884.0
132508.0
132197.0
131956.0
131788.0
131691.0
131653.0
131664.0
131714.0
131790.0
131887.0
132001.0
132126.0
132263.0
132402.0
132539.0
132884.0
132988.0
133093.0
133196.0
133294.0
133371.0
133420.0
133434.0
133420.0
133395.0
133380.0
133388.0
133423.0
133477.0
133531.0
133564.0
133560.0
133517.0
133452.0
133391.0
133352.0
133343.0
133347.0
133338.0
133295.0
133209.0
133092.0
133003.0
133113.0
133215.0
133282.0
133323.0
133386.0
133539.0
133840.0
134291.0
135746.0
135897.0
135792.0
135473.0
135023.0
134514.0
133985.0
133430.0
132831.0
132197.0
131587.0
131109.0
130858.0
130863.0
131044.0
131241.0
131273.0
130041.0
130489.0
131012.0
131280.0
131077.0
129963.0
130205.0
131876.0
135254.0
139993.0
145106.0
149231.0
151090.0
149965.0
146009.0
140235.0
134178.0
129378.0
126843.0
126762.0
128516.0
131000.0
133090.0
134063.0
133797.0
132707.0
130700.0
130653.0
131217.0
132010.0
132608.0
132759.0
132473.0
131976.0
131565.0
131452.0
131667.0
132070.0
132447.0
132630.0
132569.0
132354.0
132141.0
132068.0
132185.0
132443.0
132726.0
132928.0
132991.0
132942.0
132859.0
132822.0
132879.0
133020.0
133197.0
133356.0
133462.0
133524.0
133576.0
133663.0
133812.0
134021.0
134263.0
134506.0
134729.0
134926.0
135111.0
135296.0
135490.0
135688.0
135882.0
136063.0
136233.0
136747.0
136919.0
137053.0
137102.0
137026.0
136804.0
136434.0
135947.0
135386.0
134794.0
134211.0
133665.0
133167.0
132732.0
132360.0
132059.0
131836.0
131694.0
131630.0
131636.0
131693.0
131784.0
131894.0
132013.0
132136.0
132266.0
132402.0
132542.0
132675.0
132794.0
132893.0
132975.0
133046.0
133115.0
133194.0
133282.0
133372.0
133449.0
133503.0
133523.0
133517.0
133497.0
133483.0
133486.0
133510.0
133544.0
133571.0
133564.0
133425.0
133313.0
133210.0
133133.0
133090.0
133064.0
133033.0
132976.0
132891.0
132718.0
132701.0
132752.0
132854.0
132965.0
133110.0
133267.0
133594.0
134089.0
134675.0
135230.0
135628.0
135787.0
135693.0
134042.0
133500.0
132893.0
132245.0
131640.0
131196.0
131004.0
131064.0
131271.0
131437.0
131388.0
131058.0
130545.0
130080.0
129903.0
130136.0
130671.0
131209.0
131398.0
131060.0
130362.0
129854.0
130294.0
132327.0
151626.0
149808.0
145185.0
138946.0
125858.0
126138.0
128152.0
130730.0
132762.0
132088.0
130912.0
130250.0
130314.0
130941.0
131733.0
132289.0
132397.0
132104.0
131645.0
131309.0
131277.0
131555.0
131994.0
132392.0
132597.0
132256.0
132398.0
132656.0
132932.0
133138.0
133236.0
133248.0
133229.0
133234.0
133286.0
133371.0
133452.0
133500.0
133512.0
133519.0
133562.0
133680.0
133881.0
134147.0
134436.0
134708.0
134935.0
135113.0
135256.0
135381.0
135506.0
136256.0
136394.0
136507.0
136583.0
136607.0
136564.0
136437.0
136218.0
135911.0
135521.0
134544.0
134003.0
133465.0
132964.0
132528.0
132176.0
131912.0
131730.0
131610.0
131538.0
131499.0
131491.0
131521.0
131871.0
132053.0
132238.0
132403.0
132534.0
132631.0
132706.0
132778.0
132862.0
132967.0
133084.0
133200.0
133293.0
133352.0
133373.0
133363.0
133343.0
133335.0
133350.0
133394.0
133447.0
133484.0
133423.0
133324.0
133214.0
133129.0
133099.0
133134.0
133216.0
133307.0
133374.0
133409.0
133436.0
133512.0
134509.0
135040.0
135516.0
135830.0
135914.0
135769.0
135447.0
135026.0
134564.0
134074.0
133527.0
132899.0
132208.0
130761.0
130809.0
131072.0
131364.0
131483.0
131310.0
130885.0
130405.0
130128.0
130228.0
130682.0
131249.0
131585.0
131437.0
130854.0
130262.0
130351.0
131811.0
134974.0
139554.0
144608.0
148786.0
150773.0
149790.0
145918.0
140117.0
133921.0
128908.0
127779.0
130455.0
132838.0
134121.0
134099.0
133133.0
131893.0
131016.0
130836.0
131295.0
132043.0
132661.0
132872.0
132655.0
132212.0
131833.0
131739.0
132831.0
133047.0
132999.0
132763.0
132501.0
132370.0
132441.0
132679.0
132976.0
133205.0
133300.0
133266.0
133175.0
133116.0
133146.0
133269.0
133441.0
133601.0
133708.0
133757.0
133784.0
133839.0
133962.0
134164.0
135365.0
135521.0
135675.0
135841.0
136437.0
136643.0
136833.0
136990.0
137096.0
137132.0
137075.0
136907.0
136621.0
136234.0
135770.0
135258.0
134739.0
134236.0
133778.0
133371.0
133021.0
132722.0
132470.0
132256.0
132085.0
131954.0
131870.0
131832.0
131839.0
131885.0
131959.0
132048.0
132146.0
132249.0
132359.0
132476.0
132606.0
132743.0
132879.0
132999.0
133092.0
133149.0
133175.0
133176.0
133165.0
133153.0
133144.0
133072.0
132997.0
132897.0
132786.0
132680.0
132591.0
132520.0
132467.0
132423.0
132392.0
132415.0
132502.0
132646.0
132830.0
133025.0
133205.0
133363.0
133521.0
133729.0
134038.0
134479.0
135027.0
135607.0
136112.0
136437.0
136522.0
136364.0
136014.0
135543.0
134995.0
134387.0
133704.0
132940.0
132136.0
131389.0
130821.0
130533.0
130528.0
130702.0
130875.0
130871.0
130624.0
130218.0
129856.0
129768.0
130056.0
130623.0
131188.0
131431.0
130246.0
130760.0
132746.0
136345.0
141058.0
145802.0
149224.0
150176.0
148162.0
143568.0
137578.0
131775.0
127601.0
125872.0
126556.0
128856.0
131593.0
133674.0
134486.0
134039.0
132843.0
131611.0
130912.0
130963.0
131584.0
132373.0
133005.0
132687.0
132213.0
131876.0
131864.0
132172.0
132642.0
133049.0
133226.0
132599.0
132427.0
132405.0
132482.0
132556.0
132537.0
132398.0
132183.0
131982.0
131880.0
131916.0
132072.0
132287.0
132499.0
132667.0
132795.0
132919.0
133087.0
133328.0
133647.0
134018.0
134407.0
134784.0
135129.0
135443.0
135735.0
136014.0
136287.0
137052.0
137285.0
137502.0
137697.0
137852.0
137812.0
137541.0
137133.0
136603.0
135984.0
135321.0
134656.0
134032.0
133481.0
133020.0
132652.0
132362.0
132133.0
131943.0
131778.0
131638.0
131527.0
131465.0
131462.0
131529.0
131664.0
131847.0
132058.0
132264.0
132443.0
132731.0
132778.0
132831.0
132905.0
133000.0
133109.0
133218.0
133308.0
133364.0
133389.0
133387.0
133385.0
133391.0
133412.0
133433.0
133437.0
133409.0
133349.0
133276.0
133225.0
133224.0
133288.0
133406.0
133542.0
133659.0
133821.0
133945.0
134181.0
134567.0
135077.0
135630.0
136100.0
136374.0
136384.0
136137.0
135699.0
135153.0
134559.0
133934.0
133266.0
132548.0
131826.0
131199.0
130789.0
130670.0
130815.0
131079.0
131251.0
131162.0
130777.0
130236.0
129797.0
129710.0
131187.0
131290.0
130838.0
130100.0
129715.0
130482.0
132986.0
137260.0
142612.0
147749.0
151173.0
151726.0
149038.0
143723.0
137192.0
131167.0
127097.0
125669.0
129074.0
131675.0
133405.0
133792.0
133006.0
131678.0
130536.0
130071.0
130366.0
131789.0
131337.0
131154.0
131366.0
132912.0
133029.0
132858.0
132551.0
132294.0
132216.0
132330.0
132544.0
132727.0
132777.0
132678.0
132490.0
132312.0
132231.0
132272.0
132400.0
132538.0
132621.0
132618.0
132550.0
132464.0
132580.0
132746.0
132930.0
133105.0
133263.0
133417.0
133587.0
133787.0
134033.0
134323.0
134660.0
135042.0
135464.0
135915.0
136380.0
136821.0
137196.0
137458.0
137570.0
137525.0
137342.0
137066.0
136751.0
136449.0
136198.0
136008.0
135868.0
135479.0
135298.0
135103.0
134922.0
134783.0
134703.0
134680.0
134695.0
134719.0
134722.0
134685.0
134606.0
134494.0
134368.0
134246.0
134133.0
133573.0
133362.0
133139.0
132938.0
132788.0
132709.0
132699.0
132735.0
132777.0
132792.0
132760.0
132691.0
132623.0
132594.0
132639.0
132762.0
132931.0
133099.0
133223.0
133294.0
133355.0
133475.0
133735.0
134173.0
134764.0
135407.0
135971.0
135881.0
135389.0
134822.0
134181.0
133444.0
132605.0
131725.0
130931.0
130474.0
130613.0
130439.0
129889.0
129095.0
127916.0
128264.0
128607.0
128585.0
128044.0
127223.0
126753.0
127446.0
129930.0
149046.0
149950.0
147537.0
142374.0
135882.0
124396.0
125579.0
128323.0
131319.0
133450.0
134169.0
133616.0
132414.0
131335.0
132241.0
133229.0
133858.0
133944.0
133587.0
133066.0
132679.0
132594.0
132786.0
133093.0
133325.0
133371.0
133249.0
133090.0
133050.0
133234.0
133639.0
134176.0
134712.0
135137.0
135399.0
135509.0
135508.0
135436.0
135311.0
135136.0
134916.0
134563.0
134848.0
135229.0
135594.0
135821.0
134728.0
134338.0
134119.0
134112.0
134291.0
134586.0
134911.0
135186.0
135373.0
135465.0
135486.0
135466.0
135422.0
135358.0
135276.0
135193.0
135154.0
135227.0
135493.0
135997.0
136720.0
137543.0
138256.0
135320.0
132769.0
129864.0
126993.0
124545.0
122834.0
122023.0
122113.0
122942.0
124250.0
125732.0
127134.0
128298.0
129204.0
129962.0
130765.0
131809.0
133208.0
134950.0
136869.0
138707.0
140194.0
141132.0
141471.0
140201.0
139573.0
138939.0
138223.0
137337.0
136274.0
135146.0
134178.0
133629.0
133675.0
134333.0
135434.0
136669.0
137704.0
138287.0
138317.0
137845.0
137026.0
136034.0
134998.0
133990.0
133041.0
132187.0
131476.0
130965.0
130671.0
130552.0
130505.0
130423.0
130262.0
130084.0
130044.0
130305.0
130921.0
131770.0
132568.0
133004.0
132937.0
132543.0
132332.0
132983.0
135026.0
138528.0
142896.0
146951.0
149272.0
148697.0
144792.0
138095.0
130011.0
122380.0
116892.0
114543.0
115374.0
118541.0
122701.0
126516.0
129099.0
129763.0
129469.0
129684.0
130392.0
131332.0
132175.0
132704.0
132905.0
132920.0
132943.0
133101.0
133390.0
133699.0
133888.0
133868.0
133652.0
133347.0
133085.0
132963.0
132991.0
133100.0
133185.0
133168.0
133034.0
132834.0
132666.0
132619.0
132734.0
132998.0
133348.0
133709.0
134023.0
134274.0
134487.0
134712.0
136442.0
137032.0
137587.0
138057.0
138403.0
138615.0
138706.0
138714.0
138683.0
138655.0
138656.0
138689.0
138731.0
138742.0
137188.0
136532.0
135830.0
135123.0
134452.0
133844.0
133323.0
132894.0
132552.0
132291.0
132101.0
131970.0
131899.0
131882.0
131915.0
131985.0
132071.0
132154.0
132213.0
132235.0
132220.0
132178.0
132131.0
132098.0
132098.0
132148.0
132255.0
132417.0
132622.0
132847.0
133070.0
133271.0
133447.0
133612.0
133787.0
133996.0
134248.0
134533.0
134814.0
135282.0
135279.0
135317.0
135410.0
135538.0
135639.0
135646.0
135500.0
135188.0
134733.0
134176.0
133549.0
132867.0
132132.0
131364.0
130624.0
130020.0
129673.0
129656.0
129938.0
130369.0
130726.0
130808.0
130538.0
130018.0
129492.0
129225.0
129355.0
129786.0
130214.0
130261.0
129727.0
128764.0
127932.0
128029.0
129765.0
133384.0
138425.0
143748.0
147858.0
149422.0
147775.0
143219.0
136961.0
130717.0
126120.0
130920.0
133651.0
135023.0
134927.0
133820.0
132410.0
131299.0
130750.0
130643.0
130639.0
130420.0
129880.0
129181.0
128655.0
128614.0
129184.0
130232.0
131433.0
132422.0
132956.0
133014.0
132780.0
132535.0
132517.0
132821.0
133376.0
134009.0
134541.0
135081.0
135159.0
135308.0
135493.0
135625.0
135609.0
135416.0
135092.0
134764.0
134943.0
135490.0
136172.0
136909.0
137653.0
138402.0
139170.0
139956.0
140715.0
141353.0
141758.0
141847.0
141590.0
141036.0
140274.0
139404.0
138480.0
137499.0
136402.0
135132.0
133669.0
132075.0
130472.0
129003.0
127776.0
126816.0
126050.0
125353.0
124604.0
122169.0
123030.0
124418.0
126131.0
127927.0
129593.0
131008.0
132150.0
133071.0
133849.0
134534.0
135125.0
135577.0
135613.0
135484.0
135517.0
135760.0
136192.0
136729.0
137255.0
137668.0
137843.0
137784.0
137764.0
137744.0
137649.0
137401.0
136960.0
136336.0
135585.0
134775.0
133951.0
133115.0
132239.0
131291.0
130287.0
129302.0
128460.0
127876.0
127591.0
127535.0
127557.0
127486.0
127243.0
126895.0
126657.0
127423.0
128514.0
129755.0
130743.0
131172.0
131055.0
130815.0
131171.0
132861.0
136273.0
141163.0
146601.0
151223.0
153674.0
153130.0
149636.0
144140.0
138181.0
133356.0
130772.0
130697.0
137416.0
138386.0
137876.0
136246.0
134166.0
132295.0
130997.0
130270.0
127768.0
126883.0
126288.0
126157.0
126480.0
127087.0
127737.0
128235.0
128518.0
128643.0
128744.0
128944.0
132441.0
133146.0
133811.0
134725.0
134534.0
134202.0
133883.0
133709.0
133757.0
134027.0
134459.0
134990.0
135578.0
136216.0
136904.0
137609.0
138251.0
138710.0
138884.0
138764.0
138464.0
138220.0
138304.0
138911.0
140051.0
141510.0
142907.0
143799.0
143845.0
142934.0
141227.0
139103.0
137021.0
135372.0
134358.0
133956.0
133968.0
134123.0
134179.0
134017.0
133642.0
133157.0
132677.0
132281.0
131963.0
131656.0
131267.0
130056.0
129286.0
128530.0
127888.0
127424.0
127128.0
126922.0
126691.0
126321.0
125749.0
124996.0
124173.0
123461.0
123067.0
123171.0
123871.0
125170.0
126981.0
129160.0
131560.0
134057.0
136554.0
138982.0
141259.0
143279.0
144907.0
146026.0
146566.0
146539.0
146043.0
145213.0
144185.0
143031.0
141776.0
140405.0
138921.0
137375.0
135865.0
134488.0
133278.0
132170.0
131018.0
129680.0
128117.0
126456.0
124962.0
123926.0
123504.0
123607.0
123891.0
123921.0
123415.0
122469.0
121640.0
121795.0
123763.0
127918.0
133886.0
140524.0
146229.0
149471.0
149365.0
146027.0
140573.0
134727.0
130220.0
128189.0
128835.0
131448.0
138983.0
138959.0
137977.0
136821.0
136173.0
136332.0
137159.0
138215.0
139025.0
139304.0
139059.0
138528.0
138020.0
137736.0
137677.0
137670.0
137486.0
136971.0
136133.0
135131.0
134184.0
133456.0
132981.0
132655.0
132298.0
131750.0
130959.0
130001.0
129046.0
128281.0
127833.0
127722.0
127873.0
128154.0
128439.0
128644.0
128758.0
128825.0
128903.0
129043.0
129263.0
129556.0
129889.0
130232.0
130566.0
130891.0
131220.0
131582.0
132004.0
132511.0
133104.0
133766.0
134462.0
135143.0
135757.0
136253.0
136597.0
136769.0
136776.0
136638.0
136389.0
136062.0
135694.0
135322.0
134976.0
134680.0
134449.0
134284.0
134178.0
134104.0
134038.0
133960.0
133858.0
133740.0
133618.0
133510.0
133431.0
133339.0
133304.0
133248.0
133181.0
133114.0
133064.0
133029.0
133005.0
132974.0
132933.0
132884.0
132851.0
132859.0
132930.0
133060.0
133222.0
133373.0
133481.0
133549.0
133615.0
133752.0
134018.0
134435.0
134960.0
135494.0
135914.0
136122.0
136084.0
134936.0
134406.0
133828.0
133188.0
132506.0
131859.0
131364.0
131130.0
131186.0
131440.0
131702.0
131764.0
131510.0
130992.0
130433.0
130114.0
130216.0
130703.0
131288.0
131574.0
131263.0
130405.0
129472.0
129270.0
130605.0
133905.0
138903.0
144593.0
149482.0
152090.0
151491.0
147694.0
141685.0
135092.0
129626.0
126487.0
126001.0
127600.0
130130.0
132364.0
133461.0
133223.0
132052.0
130667.0
129735.0
129596.0
130156.0
131024.0
131741.0
132009.0
131812.0
131373.0
131004.0
130944.0
132631.0
132504.0
132361.0
133311.0
133640.0
133826.0
133887.0
133894.0
133926.0
134032.0
134197.0
134371.0
134463.0
134366.0
134276.0
134236.0
134252.0
134307.0
134372.0
134423.0
134455.0
134482.0
134525.0
134605.0
134731.0
134899.0
135102.0
135330.0
135571.0
135816.0
136048.0
136248.0
136383.0
136422.0
136340.0
136128.0
135794.0
135369.0
134890.0
134395.0
133922.0
133502.0
133156.0
132895.0
132554.0
132533.0
132521.0
132500.0
132466.0
132423.0
132384.0
132357.0
132352.0
132364.0
132382.0
132393.0
132391.0
132383.0
132393.0
132446.0
133083.0
133212.0
133281.0
133300.0
133306.0
133331.0
133390.0
133472.0
133540.0
133559.0
133520.0
133452.0
133427.0
133514.0
133758.0
134143.0
134596.0
135010.0
135280.0
135354.0
135232.0
134956.0
134575.0
134109.0
133557.0
132912.0
132205.0
131527.0
131006.0
130763.0
130834.0
131133.0
131467.0
131615.0
131446.0
131001.0
130490.0
130195.0
130310.0
130814.0
131439.0
131781.0
131529.0
130700.0
129735.0
129420.0
130576.0
133666.0
138488.0
144084.0
148997.0
151733.0
151324.0
147719.0
141838.0
135282.0
129776.0
130324.0
132754.0
134069.0
134013.0
132946.0
131575.0
130588.0
130359.0
130832.0
131635.0
132309.0
132541.0
132286.0
131756.0
131256.0
131038.0
131165.0
131519.0
131883.0
132070.0
132018.0
131812.0
131622.0
131604.0
131827.0
132241.0
132715.0
133109.0
133338.0
133390.0
133389.0
133472.0
133651.0
133887.0
134118.0
134293.0
134400.0
134461.0
134513.0
134592.0
134707.0
134849.0
134998.0
135131.0
135243.0
135341.0
135437.0
135537.0
135644.0
135752.0
135859.0
135970.0
136092.0
136231.0
136387.0
136544.0
136661.0
136697.0
136607.0
136365.0
135979.0
135475.0
134900.0
134301.0
133721.0
133190.0
132724.0
132329.0
132005.0
131757.0
131589.0
131501.0
131486.0
131527.0
131605.0
131695.0
131776.0
131839.0
131889.0
131945.0
132026.0
132143.0
132283.0
132423.0
132532.0
132590.0
132599.0
132582.0
132581.0
132632.0
132752.0
132923.0
133102.0
133250.0
133350.0
133430.0
133558.0
133812.0
134243.0
134837.0
135510.0
136133.0
136570.0
136730.0
136603.0
136241.0
135733.0
135152.0
134529.0
133859.0
133141.0
132407.0
131743.0
131270.0
131074.0
131151.0
131382.0
131566.0
131521.0
131177.0
130636.0
130135.0
129923.0
130123.0
131215.0
130719.0
129787.0
128978.0
129088.0
130818.0
134412.0
139415.0
144717.0
148856.0
150532.0
149085.0
144790.0
138788.0
132704.0
128082.0
125869.0
126145.0
128188.0
130837.0
132971.0
133922.0
133639.0
132594.0
131481.0
130872.0
131000.0
131703.0
132584.0
133230.0
133417.0
133176.0
132745.0
132411.0
132358.0
132594.0
132968.0
133276.0
133361.0
133207.0
132914.0
132644.0
132527.0
133285.0
133219.0
133126.0
133440.0
133595.0
133704.0
133771.0
133826.0
133911.0
134047.0
134233.0
134447.0
134657.0
134840.0
134986.0
135107.0
135217.0
135328.0
135448.0
135580.0
135718.0
135857.0
135994.0
136121.0
136226.0
136290.0
136285.0
136183.0
135964.0
135631.0
135205.0
134721.0
134219.0
133746.0
133331.0
132995.0
132736.0
132550.0
132422.0
132337.0
132282.0
132252.0
132239.0
132255.0
132282.0
132316.0
132354.0
132403.0
132468.0
132559.0
132673.0
132795.0
132907.0
132984.0
133016.0
133004.0
132970.0
132952.0
132980.0
133066.0
133195.0
133333.0
133445.0
133526.0
133597.0
133718.0
133954.0
135418.0
135915.0
136228.0
136292.0
136105.0
135716.0
135195.0
134592.0
133927.0
133199.0
132422.0
131657.0
131009.0
130596.0
130479.0
130614.0
130847.0
130971.0
130829.0
130412.0
129877.0
129486.0
129469.0
129879.0
130527.0
131051.0
131096.0
130561.0
129739.0
129300.0
130054.0
132576.0
136880.0
142245.0
147367.0
150756.0
151276.0
148597.0
143354.0
136965.0
131138.0
127273.0
126018.0
127103.0
129545.0
132104.0
133765.0
134093.0
133290.0
131996.0
130932.0
130569.0
130968.0
131822.0
132667.0
133122.0
131879.0
132200.0
132594.0
132862.0
132667.0
132414.0
132267.0
132325.0
132583.0
132939.0
133260.0
133456.0
133517.0
133501.0
133496.0
133568.0
133729.0
133933.0
134111.0
134211.0
134218.0
134162.0
134096.0
134072.0
134113.0
134210.0
134333.0
134453.0
134553.0
134635.0
134713.0
134808.0
134928.0
135078.0
135254.0
135450.0
135660.0
135882.0
136105.0
136308.0
136463.0
136532.0
136480.0
136288.0
135965.0
135539.0
135054.0
134557.0
134088.0
133671.0
133316.0
133020.0
132782.0
132595.0
132461.0
132380.0
132349.0
132361.0
132402.0
132452.0
132490.0
132504.0
132499.0
132489.0
132493.0
132519.0
132565.0
132609.0
132627.0
132606.0
132551.0
132487.0
132457.0
132491.0
132593.0
132736.0
132873.0
132968.0
133016.0
133059.0
133182.0
133459.0
133929.0
134554.0
135221.0
135782.0
136104.0
135423.0
134895.0
134357.0
133819.0
133258.0
131237.0
131205.0
131408.0
131684.0
131821.0
131654.0
131176.0
130560.0
130085.0
129995.0
130340.0
130911.0
131321.0
131197.0
130449.0
129411.0
128818.0
129543.0
132198.0
136777.0
142496.0
147947.0
151548.0
152105.0
149285.0
143782.0
137099.0
131028.0
127021.0
125725.0
126835.0
129317.0
131881.0
133497.0
133743.0
132860.0
131521.0
130466.0
130162.0
130646.0
131581.0
132480.0
132956.0
132892.0
132453.0
131958.0
131701.0
131808.0
132204.0
132667.0
132980.0
133027.0
132847.0
132588.0
132420.0
132452.0
132678.0
133003.0
133296.0
133466.0
133497.0
133444.0
133394.0
133412.0
133518.0
133676.0
133835.0
133942.0
133987.0
133987.0
133982.0
134007.0
134077.0
134185.0
134310.0
134434.0
134925.0
135080.0
135248.0
135425.0
135605.0
135786.0
135965.0
136137.0
136282.0
136370.0
136370.0
136253.0
136007.0
135642.0
135191.0
134696.0
134200.0
133742.0
133345.0
133023.0
132772.0
132590.0
132461.0
132376.0
132330.0
132316.0
132329.0
132364.0
132412.0
132463.0
132501.0
132517.0
132516.0
132511.0
132516.0
132544.0
132593.0
132648.0
132684.0
132686.0
132650.0
132599.0
132703.0
132864.0
133044.0
133201.0
133318.0
133422.0
133570.0
133837.0
134263.0
134830.0
135445.0
135977.0
136301.0
136347.0
136123.0
135700.0
135169.0
134597.0
134002.0
133372.0
132689.0
131999.0
131399.0
131014.0
131512.0
131375.0
130916.0
130292.0
129787.0
129666.0
130013.0
130645.0
131166.0
131172.0
130506.0
129433.0
128661.0
129073.0
131368.0
135662.0
141292.0
146919.0
150943.0
152069.0
149816.0
144726.0
138208.0
132043.0
127762.0
126141.0
126996.0
129371.0
131980.0
133740.0
134143.0
133354.0
132012.0
130871.0
130447.0
130825.0
131703.0
132591.0
133079.0
133017.0
132541.0
131975.0
131627.0
131651.0
131986.0
132426.0
132741.0
132796.0
132614.0
132338.0
132146.0
132153.0
132370.0
132703.0
133270.0
133332.0
133484.0
134015.0
133990.0
133963.0
133983.0
134071.0
134216.0
134388.0
134551.0
134690.0
134805.0
134907.0
135020.0
135153.0
135312.0
135493.0
135686.0
135888.0
136094.0
136289.0
136453.0
135806.0
135334.0
134813.0
133002.0
132710.0
132490.0
132337.0
132241.0
132192.0
132173.0
132173.0
132182.0
132192.0
132204.0
132222.0
132253.0
132300.0
132364.0
132432.0
132495.0
132545.0
132591.0
132643.0
132707.0
132787.0
132873.0
132946.0
132990.0
133001.0
132993.0
132993.0
133031.0
133122.0
133254.0
133580.0
133637.0
133732.0
133937.0
134295.0
134798.0
135369.0
135892.0
136250.0
136367.0
136235.0
135896.0
135415.0
134843.0
134196.0
133471.0
132676.0
131878.0
131186.0
130731.0
130586.0
130716.0
130962.0
131111.0
130988.0
130569.0
130001.0
129557.0
129488.0
129871.0
130529.0
131088.0
131168.0
130621.0
129708.0
129089.0
129602.0
131891.0
136051.0
141435.0
146766.0
150533.0
151521.0
149298.0
144395.0
138168.0
132314.0
128279.0
126783.0
127641.0
129922.0
132399.0
134041.0
134366.0
133542.0
132185.0
131018.0
130538.0
132404.0
132836.0
132753.0
132290.0
131746.0
131415.0
131441.0
131765.0
132190.0
132502.0
132576.0
132438.0
132225.0
132105.0
132190.0
132477.0
132867.0
133226.0
133451.0
133522.0
133491.0
133452.0
133477.0
133589.0
133759.0
133924.0
134027.0
134049.0
134011.0
133961.0
133946.0
133993.0
134094.0
134227.0
134361.0
134479.0
134580.0
134672.0
134768.0
134874.0
134990.0
135110.0
135235.0
135366.0
135514.0
135681.0
135859.0
136020.0
136126.0
136134.0
136016.0
135765.0
135404.0
134974.0
134527.0
134105.0
133740.0
133440.0
133199.0
133007.0
132845.0
132706.0
132585.0
132485.0
132409.0
132361.0
132338.0
132336.0
132354.0
132385.0
132431.0
132489.0
132551.0
132616.0
132676.0
132734.0
132795.0
132868.0
132952.0
133039.0
133113.0
133148.0
133130.0
133066.0
132982.0
132916.0
132904.0
132957.0
133059.0
133269.0
133324.0
133368.0
133457.0
133661.0
134018.0
134517.0
135086.0
135614.0
136003.0
136188.0
136160.0
135949.0
135592.0
135108.0
134494.0
133740.0
132881.0
132015.0
131289.0
130845.0
130745.0
130919.0
131179.0
130033.0
129626.0
129632.0
130076.0
130723.0
131173.0
131068.0
130343.0
129357.0
128850.0
129658.0
132341.0
136838.0
142337.0
147455.0
150691.0
150965.0
148051.0
142705.0
136413.0
130876.0
127423.0
126576.0
127954.0
130506.0
132993.0
134466.0
134582.0
133623.0
132257.0
131186.0
130830.0
131200.0
131962.0
132660.0
132953.0
132762.0
132266.0
131772.0
131545.0
131678.0
132074.0
132520.0
132815.0
132861.0
132706.0
132496.0
132384.0
132453.0
132679.0
132961.0
133182.0
133273.0
133246.0
133174.0
133144.0
133211.0
133375.0
133860.0
133879.0
133856.0
133850.0
133906.0
134038.0
134231.0
134439.0
134625.0
134763.0
134850.0
134905.0
134949.0
135008.0
135096.0
135219.0
135379.0
135575.0
135794.0
136020.0
136224.0
136377.0
136443.0
136399.0
136231.0
135951.0
135579.0
135150.0
134699.0
134254.0
133836.0
133463.0
133143.0
132877.0
132664.0
132496.0
132371.0
132289.0
132251.0
132255.0
132296.0
132364.0
132447.0
132531.0
132599.0
132646.0
132676.0
132698.0
132727.0
132771.0
132819.0
132855.0
132860.0
132820.0
132741.0
132647.0
132572.0
132545.0
132576.0
132646.0
132721.0
132769.0
132776.0
132779.0
132834.0
133016.0
133373.0
133905.0
134546.0
135195.0
135733.0
136082.0
136207.0
136123.0
135859.0
135435.0
134849.0
134092.0
133191.0
132225.0
131346.0
130725.0
130488.0
130638.0
131036.0
131440.0
131609.0
131419.0
130941.0
130414.0
130130.0
130276.0
130807.0
131439.0
131777.0
131533.0
130749.0
129880.0
129676.0
130887.0
133896.0
138441.0
143576.0
147911.0
150079.0
149242.0
145437.0
139605.0
133284.0
128090.0
126558.0
129279.0
131805.0
133294.0
133497.0
130782.0
131310.0
132134.0
132833.0
133110.0
132918.0
132440.0
131968.0
132626.0
132912.0
132997.0
132937.0
132867.0
132931.0
133200.0
133646.0
134157.0
135023.0
135035.0
135018.0
135044.0
135137.0
135276.0
135409.0
135481.0
135467.0
135370.0
135221.0
135059.0
134919.0
134821.0
134770.0
134773.0
134822.0
134910.0
135023.0
135137.0
135230.0
135285.0
135296.0
135276.0
135253.0
135256.0
135300.0
135373.0
135435.0
135434.0
135314.0
135049.0
134648.0
134151.0
133617.0
133108.0
132660.0
132282.0
131958.0
131667.0
131394.0
131147.0
130951.0
130840.0
130835.0
130934.0
131096.0
131264.0
131380.0
131412.0
131362.0
131271.0
131198.0
131192.0
131284.0
131466.0
131702.0
131927.0
132096.0
132172.0
132167.0
132115.0
132071.0
132091.0
132202.0
132406.0
132668.0
132941.0
133176.0
133351.0
133490.0
133646.0
133890.0
134279.0
134826.0
135486.0
136171.0
136761.0
137160.0
137308.0
137198.0
136864.0
136354.0
135708.0
132292.0
132127.0
132216.0
132438.0
132612.0
132574.0
131060.0
131210.0
131672.0
132198.0
132472.0
132300.0
131774.0
131313.0
131551.0
133049.0
136003.0
140035.0
144210.0
147303.0
148224.0
146448.0
142255.0
136686.0
131206.0
127196.0
125491.0
126127.0
128404.0
131211.0
133472.0
134532.0
134326.0
133295.0
132110.0
131346.0
131261.0
131741.0
132433.0
132944.0
133051.0
132764.0
132292.0
131901.0
131778.0
131943.0
132273.0
132580.0
132728.0
132686.0
132542.0
132432.0
132468.0
132681.0
133017.0
133368.0
133632.0
133769.0
133800.0
133790.0
133801.0
133867.0
133973.0
134079.0
134147.0
134167.0
134160.0
134163.0
134214.0
134328.0
134487.0
134667.0
135102.0
135220.0
135347.0
135488.0
135632.0
135770.0
135888.0
135992.0
136082.0
136171.0
136248.0
136298.0
136281.0
136164.0
135921.0
135553.0
135089.0
134578.0
134072.0
133609.0
133215.0
132888.0
132618.0
132391.0
132205.0
132063.0
131974.0
131952.0
131994.0
132089.0
132216.0
132343.0
132447.0
132512.0
132539.0
132540.0
132533.0
132534.0
132545.0
132572.0
132666.0
132726.0
132784.0
132828.0
132847.0
132830.0
132783.0
132718.0
132666.0
132653.0
132704.0
132808.0
132947.0
133086.0
133206.0
133314.0
133452.0
133674.0
134026.0
134515.0
135092.0
135666.0
136131.0
136398.0
136431.0
136246.0
135883.0
135386.0
133322.0
132549.0
131868.0
131398.0
131216.0
131303.0
131534.0
131715.0
131671.0
131340.0
130819.0
130334.0
130128.0
130316.0
130810.0
131327.0
131529.0
131238.0
130594.0
130095.0
130425.0
132169.0
135474.0
139858.0
144276.0
147415.0
148177.0
146111.0
141632.0
135925.0
