130842.0
131572.0
131955.0
131869.0
131449.0
130978.0
130726.0
130810.0
131160.0
131579.0
131880.0
131680.0
131400.0
131205.0
131199.0
131384.0
131672.0
131942.0
132112.0
132162.0
132149.0
132148.0
132217.0
132362.0
132542.0
132701.0
132796.0
132850.0
132902.0
133031.0
133240.0
133499.0
133760.0
133986.0
134164.0
134311.0
134887.0
135154.0
135429.0
135682.0
135897.0
136078.0
136236.0
136387.0
136529.0
136642.0
136684.0
136612.0
136397.0
136032.0
135539.0
134957.0
134340.0
133734.0
133174.0
132675.0
132242.0
131862.0
131535.0
131259.0
131046.0
130902.0
130837.0
130845.0
131178.0
131315.0
131439.0
131548.0
131650.0
131751.0
131863.0
131986.0
132120.0
132255.0
132384.0
132493.0
132581.0
132647.0
132698.0
132740.0
132786.0
132839.0
132900.0
132969.0
133034.0
133090.0
133125.0
133140.0
133134.0
133111.0
133081.0
133047.0
133011.0
132975.0
132935.0
132889.0
132840.0
132790.0
132743.0
132703.0
132669.0
132639.0
132605.0
132561.0
132506.0
132448.0
132404.0
132386.0
132397.0
132426.0
132450.0
132323.0
132249.0
132213.0
132242.0
132338.0
132470.0
132589.0
132653.0
132653.0
132627.0
132639.0
132764.0
133042.0
134361.0
134667.0
134800.0
134762.0
134593.0
134324.0
133957.0
133473.0
132855.0
132127.0
131383.0
130764.0
130402.0
130764.0
130838.0
130622.0
130147.0
129612.0
129287.0
129366.0
130474.0
130884.0
130777.0
130158.0
129426.0
129299.0
130529.0
133534.0
138113.0
143370.0
147938.0
150427.0
149938.0
146432.0
140780.0
134494.0
129193.0
126062.0
125477.0
126964.0
129466.0
131807.0
133130.0
133169.0
132230.0
130961.0
130006.0
129731.0
130122.0
130867.0
131550.0
131879.0
131789.0
131442.0
131097.0
130966.0
131117.0
131456.0
131806.0
132005.0
131994.0
131832.0
131647.0
131565.0
131644.0
131853.0
132103.0
132300.0
132388.0
132513.0
132669.0
132815.0
132925.0
133002.0
133074.0
133167.0
133296.0
133460.0
133646.0
133836.0
134025.0
134222.0
134439.0
134686.0
134959.0
135240.0
135512.0
135759.0
135977.0
136173.0
136357.0
136532.0
136686.0
136791.0
135639.0
135091.0
134501.0
133903.0
133321.0
132779.0
132289.0
131863.0
131511.0
131232.0
131024.0
130879.0
130791.0
130753.0
130759.0
130808.0
130897.0
131618.0
131752.0
131886.0
132033.0
132200.0
132388.0
132583.0
132763.0
132991.0
133018.0
133001.0
132966.0
132939.0
132943.0
132977.0
133031.0
133078.0
133103.0
133094.0
133055.0
133003.0
132960.0
132939.0
132942.0
132952.0
132840.0
132740.0
132639.0
132561.0
132527.0
132537.0
132579.0
132622.0
132639.0
132615.0
132556.0
132487.0
132437.0
132422.0
132445.0
132484.0
132509.0
132497.0
132445.0
132381.0
132342.0
132362.0
132454.0
132594.0
132735.0
132832.0
132863.0
132853.0
132861.0
132962.0
133205.0
133584.0
134760.0
134883.0
134832.0
134647.0
134375.0
133044.0
132366.0
131628.0
130955.0
130495.0
130845.0
130746.0
130352.0
129804.0
129352.0
130545.0
130117.0
129476.0
129239.0
130143.0
136886.0
141992.0
146773.0
149828.0
150119.0
147377.0
142249.0
136105.0
130565.0
126921.0
129278.0
131709.0
133261.0
133529.0
132720.0
131439.0
130363.0
129942.0
130227.0
130940.0
131652.0
132026.0
131175.0
130987.0
131105.0
131442.0
131796.0
131974.0
131896.0
131623.0
131317.0
131149.0
131211.0
131476.0
131825.0
132113.0
132248.0
132227.0
132129.0
132064.0
132299.0
132569.0
132837.0
133028.0
133114.0
133118.0
133094.0
133107.0
133190.0
133345.0
133546.0
133762.0
133970.0
134169.0
134374.0
134607.0
134874.0
135170.0
135477.0
135773.0
136040.0
136274.0
136474.0
136644.0
136776.0
136853.0
136841.0
136711.0
136439.0
136027.0
135497.0
134887.0
134244.0
133614.0
133031.0
132510.0
132059.0
131675.0
131351.0
131087.0
130889.0
130764.0
130717.0
130748.0
130849.0
130997.0
131173.0
131353.0
131519.0
131659.0
131774.0
131869.0
131952.0
132036.0
132127.0
132235.0
132357.0
132855.0
132941.0
133004.0
133050.0
133085.0
133116.0
133150.0
133187.0
133220.0
133241.0
133240.0
133212.0
133156.0
133079.0
132992.0
132910.0
132771.0
132754.0
132736.0
132710.0
132673.0
132627.0
132576.0
132531.0
132493.0
132405.0
132382.0
132373.0
132383.0
132442.0
132458.0
132446.0
132402.0
132341.0
132291.0
132281.0
132327.0
132416.0
132517.0
132590.0
132611.0
132601.0
132610.0
132714.0
132968.0
133379.0
133894.0
134412.0
134822.0
135050.0
135073.0
134923.0
134653.0
133276.0
132579.0
131797.0
131041.0
130459.0
130172.0
130200.0
130436.0
130680.0
130734.0
130505.0
130070.0
129641.0
129464.0
129661.0
130146.0
130632.0
130783.0
130422.0
129717.0
129203.0
129622.0
131594.0
135289.0
140204.0
145229.0
148962.0
138103.0
132318.0
128089.0
126235.0
126711.0
128735.0
131154.0
132920.0
133470.0
132857.0
131608.0
130419.0
129823.0
129984.0
130686.0
131510.0
132052.0
132120.0
131787.0
131204.0
131580.0
131870.0
131938.0
131781.0
131516.0
131311.0
131285.0
131456.0
131752.0
132041.0
132219.0
132248.0
132169.0
132071.0
132040.0
132119.0
132295.0
132514.0
132717.0
132869.0
132973.0
133056.0
133160.0
133305.0
133925.0
134127.0
134318.0
134511.0
134721.0
134957.0
135222.0
135500.0
135779.0
136042.0
136287.0
136501.0
136685.0
136826.0
136909.0
136906.0
136794.0
136555.0
136190.0
135710.0
135140.0
134517.0
133880.0
133267.0
132706.0
132220.0
131819.0
131081.0
130962.0
130892.0
130868.0
130886.0
130942.0
131032.0
131151.0
131291.0
131444.0
131602.0
131755.0
131899.0
132033.0
132156.0
132273.0
132386.0
132696.0
132777.0
132837.0
132877.0
132899.0
132911.0
132923.0
132943.0
132974.0
133016.0
133060.0
133095.0
133115.0
133115.0
133097.0
133068.0
133035.0
133002.0
132971.0
132937.0
132897.0
132847.0
132791.0
132734.0
132681.0
132640.0
132605.0
132573.0
132533.0
132479.0
132421.0
132373.0
132351.0
132363.0
132402.0
132447.0
132460.0
132427.0
132351.0
132200.0
132283.0
132426.0
132583.0
132703.0
132761.0
132777.0
132811.0
132938.0
133205.0
133605.0
134076.0
134520.0
134841.0
134982.0
134941.0
134753.0
134458.0
134070.0
133571.0
132947.0
132213.0
131452.0
130801.0
130398.0
130312.0
130488.0
130759.0
130910.0
130786.0
130387.0
129873.0
129503.0
129476.0
129821.0
130335.0
130681.0
130575.0
130011.0
129350.0
129269.0
130486.0
133419.0
137889.0
143038.0
147546.0
150051.0
149665.0
140910.0
134854.0
129757.0
126772.0
126260.0
127735.0
130146.0
132334.0
133483.0
133362.0
132320.0
131022.0
130110.0
129928.0
130414.0
131215.0
131891.0
132150.0
131955.0
131507.0
131102.0
130961.0
131139.0
131512.0
131862.0
132010.0
131896.0
131604.0
131213.0
131455.0
131757.0
131993.0
132095.0
132044.0
132219.0
132447.0
132658.0
132804.0
132880.0
132915.0
132963.0
133060.0
133223.0
133438.0
133680.0
133918.0
134142.0
134357.0
134576.0
134815.0
135079.0
135364.0
135659.0
135952.0
136234.0
136490.0
136716.0
136896.0
137012.0
137047.0
136976.0
136779.0
136454.0
136008.0
135459.0
134838.0
134181.0
133528.0
132920.0
132388.0
131948.0
131603.0
131346.0
131154.0
131016.0
130916.0
130853.0
130830.0
130853.0
130927.0
131050.0
131209.0
131387.0
131563.0
131723.0
131857.0
131964.0
132056.0
132145.0
132245.0
132364.0
132500.0
132647.0
132786.0
132906.0
132993.0
133044.0
133069.0
133075.0
133083.0
133100.0
133127.0
133155.0
133173.0
133166.0
133130.0
133067.0
132988.0
132908.0
132842.0
132790.0
132752.0
132721.0
132691.0
132660.0
132635.0
132620.0
132619.0
132630.0
132640.0
132634.0
132605.0
132558.0
132509.0
132478.0
132469.0
132477.0
132477.0
132445.0
132370.0
132265.0
132169.0
132124.0
132165.0
132292.0
132463.0
132620.0
132713.0
132729.0
132710.0
132731.0
132873.0
133179.0
133628.0
134134.0
134585.0
134884.0
134980.0
134880.0
134623.0
134248.0
133774.0
133193.0
132512.0
131775.0
131083.0
130566.0
130320.0
130357.0
130569.0
130762.0
130753.0
129506.0
129298.0
129471.0
129932.0
130397.0
130530.0
130163.0
129473.0
129007.0
129519.0
131640.0
135533.0
140687.0
145950.0
149880.0
151228.0
149419.0
144815.0
138613.0
132455.0
127862.0
125725.0
126059.0
128096.0
130657.0
132643.0
133417.0
132966.0
131787.0
130568.0
129869.0
131733.0
131818.0
131532.0
131114.0
130837.0
130868.0
131191.0
131642.0
132007.0
132146.0
132043.0
131803.0
131583.0
131507.0
131608.0
131830.0
132062.0
132208.0
132230.0
132159.0
132067.0
132031.0
132085.0
132221.0
132397.0
132705.0
132818.0
132930.0
133066.0
133240.0
133443.0
133657.0
133865.0
134062.0
134259.0
134472.0
134715.0
134991.0
135286.0
135580.0
135854.0
136093.0
136296.0
136470.0
136621.0
136748.0
136839.0
136864.0
136788.0
136585.0
136243.0
135765.0
135176.0
134524.0
133855.0
133219.0
132649.0
132162.0
131757.0
131424.0
131154.0
130944.0
130792.0
130712.0
130709.0
130780.0
130903.0
131050.0
131188.0
131297.0
131374.0
131435.0
131505.0
131611.0
131767.0
131971.0
132199.0
132423.0
132619.0
132768.0
132875.0
132950.0
133009.0
133066.0
133127.0
133185.0
133234.0
133263.0
133268.0
133252.0
133223.0
133188.0
133153.0
133122.0
133093.0
133069.0
133039.0
133002.0
132954.0
132894.0
132821.0
132576.0
132524.0
132498.0
132485.0
132407.0
132308.0
132178.0
132048.0
131961.0
131955.0
132039.0
132193.0
132364.0
132508.0
132601.0
132664.0
132755.0
132945.0
133275.0
133736.0
134256.0
134724.0
135041.0
135144.0
135038.0
134780.0
134428.0
132322.0
131611.0
130964.0
130511.0
130341.0
130817.0
130735.0
130380.0
129888.0
129503.0
129453.0
129799.0
130378.0
130845.0
130862.0
130318.0
129482.0
128996.0
129643.0
132010.0
136137.0
141365.0
146437.0
149902.0
150614.0
148191.0
143190.0
136946.0
128732.0
131252.0
132994.0
133468.0
132798.0
131551.0
130417.0
129883.0
130063.0
130720.0
131442.0
131871.0
131869.0
131540.0
131142.0
130933.0
131032.0
131384.0
131803.0
132092.0
132140.0
131970.0
131710.0
131516.0
131490.0
131638.0
131877.0
132093.0
132207.0
132196.0
132120.0
132056.0
132074.0
132193.0
132383.0
132590.0
132764.0
132882.0
132962.0
133038.0
133142.0
133293.0
133487.0
133706.0
133930.0
134156.0
134385.0
134629.0
134890.0
135166.0
135441.0
135709.0
135960.0
136195.0
136423.0
136642.0
136840.0
136989.0
137053.0
136991.0
136784.0
136430.0
135954.0
135394.0
134794.0
134188.0
133601.0
133049.0
132543.0
132086.0
131687.0
131358.0
130825.0
130782.0
130786.0
130821.0
130881.0
130962.0
131063.0
131184.0
131324.0
131479.0
131646.0
131817.0
131992.0
132167.0
132662.0
132787.0
132878.0
132930.0
132951.0
132950.0
132949.0
132957.0
132984.0
133025.0
133117.0
133147.0
133163.0
133164.0
133159.0
133149.0
133140.0
133124.0
133097.0
133056.0
133003.0
132946.0
132894.0
132853.0
132822.0
132793.0
132759.0
132709.0
132640.0
132554.0
132465.0
132356.0
132359.0
132392.0
132430.0
132445.0
132419.0
132351.0
132267.0
132206.0
132201.0
132270.0
132400.0
132548.0
132667.0
132724.0
132726.0
132724.0
132790.0
132991.0
133347.0
133822.0
134322.0
134740.0
134992.0
135044.0
134920.0
134670.0
134336.0
133926.0
133419.0
132793.0
132068.0
131339.0
130739.0
130397.0
130359.0
130790.0
130869.0
130663.0
130205.0
129681.0
129352.0
129398.0
129806.0
130337.0
130645.0
130477.0
129866.0
129237.0
129294.0
130742.0
133938.0
138613.0
143837.0
148246.0
150504.0
149794.0
146162.0
140540.0
134438.0
129428.0
126603.0
126246.0
127813.0
130231.0
132359.0
133421.0
133234.0
132170.0
130890.0
130009.0
129837.0
130297.0
131036.0
131643.0
131853.0
131652.0
131239.0
130892.0
130806.0
131012.0
131380.0
131709.0
131845.0
131753.0
131528.0
131329.0
131703.0
131978.0
132147.0
132169.0
132084.0
131990.0
131977.0
132091.0
132304.0
132544.0
132733.0
132828.0
132836.0
132818.0
132840.0
132949.0
133151.0
133416.0
133699.0
133959.0
134185.0
134391.0
134608.0
134862.0
135158.0
135486.0
135813.0
136110.0
136364.0
136570.0
136738.0
136878.0
136987.0
137049.0
137027.0
136883.0
136594.0
136159.0
135599.0
134955.0
134283.0
133631.0
133037.0
132520.0
132083.0
131719.0
131415.0
131168.0
130979.0
130849.0
130781.0
130767.0
130801.0
130869.0
130958.0
131062.0
131181.0
131315.0
131826.0
132005.0
132171.0
132315.0
132436.0
132805.0
132888.0
132959.0
133010.0
133035.0
133040.0
133027.0
133031.0
133054.0
133092.0
133141.0
133181.0
133202.0
133195.0
133159.0
133104.0
133037.0
132975.0
132923.0
132888.0
132865.0
132696.0
132651.0
132613.0
132590.0
132576.0
132566.0
132553.0
132536.0
132520.0
132514.0
132514.0
132515.0
132501.0
132460.0
132391.0
132304.0
132225.0
132190.0
132218.0
132307.0
132430.0
132542.0
132606.0
132619.0
132618.0
132836.0
133158.0
133610.0
134109.0
134546.0
134828.0
134907.0
134801.0
134566.0
134258.0
133894.0
133456.0
132907.0
132244.0
131527.0
130883.0
130452.0
130317.0
130694.0
130841.0
130724.0
130323.0
129786.0
129366.0
130135.0
130549.0
130535.0
130027.0
129337.0
129116.0
130113.0
132826.0
137182.0
142420.0
147246.0
150253.0
150420.0
147536.0
142307.0
136146.0
130681.0
127194.0
126204.0
127366.0
129689.0
131991.0
133354.0
133434.0
132492.0
131167.0
130133.0
129804.0
130190.0
130963.0
131678.0
131397.0
130949.0
130769.0
130949.0
131384.0
131847.0
132120.0
132094.0
131820.0
131457.0
131188.0
131126.0
131275.0
131970.0
131950.0
132000.0
132141.0
132332.0
132666.0
132757.0
132820.0
132900.0
133030.0
133222.0
133455.0
133703.0
133937.0
134152.0
134358.0
134580.0
134834.0
135122.0
135431.0
135733.0
136015.0
136262.0
136478.0
136675.0
136855.0
137012.0
137116.0
137128.0
137004.0
136725.0
136290.0
135726.0
135079.0
134403.0
133750.0
133156.0
132639.0
132199.0
131825.0
131507.0
131237.0
131018.0
130856.0
130760.0
130731.0
130768.0
130854.0
130975.0
131110.0
131253.0
131393.0
131535.0
131682.0
131838.0
131998.0
132159.0
132313.0
132449.0
132562.0
132653.0
132724.0
132784.0
132835.0
132884.0
132930.0
132974.0
133014.0
133052.0
133091.0
133134.0
133179.0
133223.0
133254.0
133263.0
133239.0
133182.0
133098.0
133003.0
132844.0
132801.0
132780.0
132767.0
132751.0
132724.0
132688.0
132651.0
132625.0
132620.0
132635.0
132706.0
132702.0
132686.0
132670.0
132735.0
132778.0
132802.0
132784.0
132724.0
132636.0
132551.0
132491.0
132468.0
132487.0
132454.0
132402.0
132352.0
132335.0
132369.0
132445.0
132536.0
132608.0
132648.0
132678.0
132752.0
132926.0
133239.0
133672.0
134155.0
134584.0
134864.0
134946.0
134840.0
134599.0
134283.0
133919.0
133487.0
132951.0
132297.0
131573.0
130292.0
130518.0
130681.0
130609.0
130260.0
129763.0
129363.0
129293.0
129629.0
130208.0
130691.0
130739.0
130240.0
129464.0
129052.0
129792.0
132270.0
136516.0
141857.0
147023.0
150545.0
151276.0
148838.0
143806.0
137535.0
131696.0
127695.0
126208.0
133438.0
132590.0
131227.0
130058.0
129817.0
130549.0
131314.0
131736.0
131686.0
131292.0
130847.0
130623.0
130746.0
131147.0
131622.0
131950.0
132011.0
131830.0
131551.0
131343.0
131320.0
131488.0
131757.0
132005.0
132137.0
132138.0
132062.0
131996.0
132303.0
132477.0
132601.0
132662.0
132685.0
132724.0
132820.0
132992.0
133227.0
133489.0
133751.0
133994.0
134230.0
135059.0
135370.0
135663.0
135917.0
136125.0
136299.0
136460.0
136627.0
136795.0
136942.0
135965.0
135393.0
134784.0
134183.0
133096.0
132617.0
132172.0
131762.0
131391.0
131078.0
130839.0
130690.0
130629.0
130648.0
130725.0
130840.0
130974.0
131394.0
131531.0
131662.0
131791.0
131920.0
132049.0
132187.0
132337.0
132497.0
132656.0
132804.0
132926.0
133012.0
133059.0
133079.0
133081.0
133079.0
133083.0
133097.0
133116.0
133133.0
133144.0
133145.0
133135.0
133116.0
133012.0
132969.0
132928.0
132898.0
132883.0
132883.0
132889.0
132890.0
132870.0
132821.0
132746.0
132661.0
132583.0
132531.0
132514.0
132526.0
132549.0
132566.0
132557.0
132530.0
132499.0
132484.0
132495.0
132541.0
132476.0
132402.0
132359.0
132374.0
132451.0
132559.0
132656.0
132704.0
132702.0
132688.0
132724.0
132876.0
133170.0
133576.0
134023.0
134412.0
134668.0
134760.0
134701.0
134528.0
134261.0
133895.0
133407.0
132782.0
132065.0
131361.0
130810.0
130526.0
130531.0
130722.0
130904.0
130884.0
130573.0
130050.0
129537.0
129296.0
129468.0
129980.0
130546.0
130803.0
130532.0
129852.0
129270.0
129541.0
131348.0
134956.0
139951.0
145265.0
149468.0
145692.0
139657.0
133414.0
128528.0
125992.0
125950.0
127738.0
132270.0
133192.0
132893.0
131811.0
130625.0
129915.0
129921.0
130508.0
131287.0
131849.0
131970.0
131681.0
131219.0
130874.0
130835.0
131105.0
131525.0
131876.0
131998.0
131871.0
131601.0
131365.0
131307.0
131468.0
131780.0
132114.0
132343.0
132410.0
132346.0
132238.0
132184.0
132240.0
132396.0
132592.0
132754.0
132839.0
132847.0
132823.0
132833.0
132929.0
133127.0
133412.0
133739.0
134071.0
134378.0
134661.0
134929.0
135199.0
135480.0
135765.0
136036.0
136475.0
136631.0
136758.0
136862.0
136949.0
136999.0
136979.0
136849.0
136583.0
136165.0
135613.0
134967.0
134282.0
133616.0
133011.0
132490.0
132050.0
131679.0
131358.0
131080.0
130847.0
130672.0
130572.0
130552.0
130607.0
130719.0
130866.0
131025.0
131185.0
131339.0
131496.0
131656.0
131825.0
132001.0
132173.0
132334.0
132478.0
132607.0
132723.0
132833.0
132937.0
133034.0
133118.0
133180.0
133216.0
133231.0
133232.0
133228.0
133231.0
133243.0
133264.0
133286.0
133303.0
133309.0
133302.0
133281.0
133205.0
133147.0
133078.0
132998.0
132919.0
132852.0
132810.0
132795.0
132803.0
132819.0
132826.0
132811.0
132770.0
132716.0
132666.0
132641.0
132652.0
132692.0
132742.0
132772.0
132757.0
132607.0
132509.0
132430.0
132378.0
132351.0
132334.0
132308.0
132272.0
132238.0
132230.0
132266.0
132346.0
132452.0
132553.0
132627.0
133482.0
133928.0
134369.0
134718.0
134905.0
134918.0
134781.0
134533.0
134200.0
132564.0
131816.0
131097.0
130549.0
130279.0
130300.0
130500.0
130690.0
130684.0
129527.0
129366.0
129584.0
130073.0
130544.0
130668.0
130293.0
129609.0
129173.0
129728.0
131888.0
135787.0
140892.0
146053.0
149854.0
151086.0
149230.0
132716.0
128375.0
126432.0
126851.0
128839.0
131236.0
132989.0
133529.0
132901.0
131633.0
130415.0
129779.0
129888.0
130538.0
131314.0
131823.0
131883.0
131566.0
131130.0
130851.0
130882.0
131191.0
131607.0
131917.0
131988.0
131825.0
131549.0
131328.0
131278.0
131418.0
131671.0
131910.0
132039.0
132029.0
131932.0
131838.0
131829.0
131935.0
132127.0
132341.0
132513.0
132615.0
132667.0
132718.0
132819.0
133004.0
133266.0
133576.0
133891.0
134180.0
134432.0
134660.0
134884.0
135120.0
135376.0
135647.0
135918.0
136180.0
136877.0
137075.0
137233.0
137316.0
137285.0
137109.0
136774.0
136287.0
135685.0
135013.0
134326.0
133672.0
133081.0
132563.0
132117.0
130670.0
130585.0
130587.0
130665.0
130794.0
130944.0
131233.0
131360.0
131488.0
131632.0
131798.0
131980.0
132167.0
132336.0
132476.0
132577.0
132647.0
132705.0
132765.0
132839.0
132927.0
133017.0
133097.0
133155.0
133185.0
133195.0
133221.0
133229.0
133220.0
133187.0
133133.0
133069.0
133007.0
132956.0
132919.0
132893.0
132866.0
132831.0
132783.0
132724.0
132668.0
132627.0
132606.0
132613.0
132639.0
132676.0
132712.0
132737.0
132743.0
132730.0
132696.0
132648.0
132596.0
132533.0
132548.0
132558.0
132543.0
132413.0
132332.0
132287.0
132300.0
132376.0
132493.0
132611.0
132690.0
132725.0
132747.0
132819.0
133006.0
133343.0
133802.0
134305.0
134745.0
135024.0
135098.0
134980.0
134722.0
134379.0
133971.0
133482.0
132882.0
132175.0
130758.0
130307.0
130146.0
130239.0
130439.0
130554.0
130442.0
130100.0
129673.0
129389.0
129425.0
129790.0
130284.0
130595.0
130477.0
129951.0
129398.0
129482.0
130894.0
134001.0
138580.0
143753.0
148199.0
150592.0
150086.0
146665.0
141189.0
135127.0
130038.0
127048.0
126491.0
127886.0
130195.0
132286.0
133362.0
133208.0
132165.0
130883.0
129986.0
129808.0
130293.0
131091.0
131775.0
132056.0
131895.0
131479.0
131165.0
131568.0
131976.0
132204.0
132175.0
131944.0
131647.0
131427.0
131359.0
131430.0
131565.0
131677.0
131717.0
131691.0
131742.0
131892.0
132068.0
132230.0
132358.0
132463.0
132576.0
132728.0
132927.0
133158.0
133395.0
133611.0
133803.0
133987.0
134195.0
134450.0
134765.0
135123.0
135495.0
135851.0
136173.0
136459.0
136716.0
136959.0
137186.0
137382.0
137512.0
137531.0
137402.0
137113.0
136672.0
136110.0
135468.0
134791.0
134119.0
133481.0
132896.0
132373.0
131918.0
131533.0
131220.0
130983.0
130821.0
130723.0
130790.0
130892.0
131016.0
131159.0
131308.0
131459.0
131608.0
131748.0
131882.0
132009.0
132132.0
132254.0
132377.0
132496.0
132607.0
132704.0
132783.0
132843.0
132886.0
132921.0
132955.0
132996.0
133050.0
133118.0
133198.0
133275.0
133338.0
133373.0
133368.0
133316.0
133229.0
133117.0
133002.0
132904.0
132835.0
132797.0
132781.0
132771.0
132755.0
132727.0
132691.0
132661.0
132646.0
132655.0
132678.0
132701.0
132699.0
132654.0
132565.0
132449.0
132340.0
132271.0
132257.0
132297.0
132368.0
132437.0
132478.0
132487.0
132478.0
132480.0
132513.0
132582.0
132668.0
132741.0
132782.0
132803.0
132840.0
132952.0
133186.0
133550.0
134000.0
134456.0
134826.0
135046.0
135100.0
134497.0
134081.0
133519.0
132800.0
131973.0
131158.0
130512.0
130160.0
130132.0
130325.0
130549.0
130606.0
130402.0
130008.0
129627.0
129488.0
129707.0
130181.0
130617.0
130661.0
130138.0
129218.0
128465.0
128669.0
130521.0
134253.0
139403.0
144854.0
149142.0
133452.0
128823.0
126563.0
126756.0
131176.0
133133.0
133889.0
133410.0
132182.0
130912.0
130181.0
130215.0
130843.0
131656.0
132230.0
132336.0
132016.0
131512.0
131125.0
131051.0
131293.0
131697.0
132045.0
132174.0
131533.0
131430.0
131524.0
131763.0
132035.0
132268.0
132267.0
132329.0
132432.0
132520.0
132548.0
132503.0
132421.0
132363.0
132388.0
132525.0
132763.0
133057.0
133359.0
133636.0
133888.0
134144.0
134436.0
134782.0
135175.0
135583.0
136266.0
136495.0
136661.0
136801.0
136944.0
137098.0
137233.0
137292.0
137205.0
136924.0
136438.0
135783.0
135034.0
134279.0
133595.0
133037.0
132600.0
132258.0
131963.0
131680.0
131393.0
131115.0
130878.0
130715.0
130646.0
130672.0
130770.0
130912.0
131535.0
131636.0
131756.0
131902.0
132079.0
132511.0
132734.0
132929.0
133073.0
133155.0
133176.0
133120.0
133167.0
133211.0
133232.0
133194.0
133157.0
133121.0
133101.0
133092.0
133085.0
133062.0
133015.0
132942.0
132845.0
132740.0
132635.0
132538.0
132459.0
132410.0
132389.0
132400.0
132427.0
132453.0
132457.0
132424.0
132359.0
132284.0
132235.0
132457.0
132601.0
132713.0
132765.0
132775.0
132793.0
132892.0
133120.0
133483.0
133931.0
134373.0
134716.0
134896.0
134902.0
134755.0
134489.0
134124.0
133642.0
132295.0
131522.0
130837.0
130384.0
130242.0
130375.0
130628.0
130784.0
130672.0
129264.0
129156.0
129451.0
129982.0
130409.0
130410.0
129899.0
129178.0
128901.0
129847.0
132564.0
137031.0
142512.0
147700.0
151115.0
151631.0
148910.0
143581.0
137042.0
130989.0
126837.0
125265.0
126060.0
128300.0
130779.0
132486.0
132948.0
132306.0
131132.0
130108.0
129700.0
130003.0
130760.0
131555.0
132029.0
132043.0
131702.0
131267.0
130991.0
131004.0
131259.0
131597.0
131843.0
131902.0
131795.0
131639.0
132160.0
132401.0
132529.0
132542.0
132493.0
132455.0
132474.0
132554.0
132653.0
132721.0
132730.0
132686.0
132636.0
132631.0
132714.0
132893.0
133143.0
133437.0
133740.0
134042.0
134350.0
134672.0
135011.0
135356.0
135682.0
135967.0
136197.0
136379.0
136536.0
136689.0
136849.0
137005.0
137122.0
137151.0
137047.0
136786.0
136377.0
135847.0
135244.0
134611.0
133988.0
133397.0
132844.0
132330.0
131861.0
131445.0
131099.0
130841.0
130681.0
130616.0
130629.0
130694.0
130782.0
130876.0
130966.0
131061.0
131180.0
131330.0
131516.0
131727.0
131940.0
132133.0
132285.0
132393.0
132468.0
132527.0
132591.0
132670.0
132768.0
132875.0
132981.0
133074.0
133153.0
133216.0
133270.0
133313.0
133338.0
133336.0
133303.0
133239.0
133159.0
133079.0
133020.0
132988.0
132974.0
132962.0
132925.0
132493.0
132496.0
132521.0
132529.0
132287.0
132198.0
132183.0
132255.0
132393.0
132543.0
132648.0
132684.0
132681.0
132707.0
132850.0
133162.0
133629.0
134169.0
134657.0
134981.0
135085.0
134981.0
134731.0
134404.0
132397.0
131671.0
130995.0
130515.0
130322.0
130391.0
130587.0
130706.0
130593.0
130228.0
129755.0
129415.0
129415.0
129787.0
130341.0
130741.0
130698.0
130174.0
129518.0
129396.0
130548.0
133426.0
137893.0
143124.0
147793.0
150497.0
150278.0
147003.0
141473.0
135159.0
129703.0
126356.0
125575.0
126950.0
129441.0
131845.0
133264.0
133377.0
132473.0
131202.0
130244.0
129988.0
130428.0
131231.0
131950.0
132251.0
131033.0
130764.0
130846.0
131188.0
131593.0
131858.0
131891.0
131732.0
131519.0
131400.0
131671.0
131951.0
132179.0
132288.0
132213.0
132178.0
132229.0
132370.0
132562.0
132976.0
133022.0
133117.0
133270.0
134160.0
134410.0
134688.0
135000.0
135333.0
135664.0
135967.0
136226.0
136446.0
136645.0
136837.0
137033.0
137213.0
137337.0
137352.0
137213.0
136900.0
136425.0
135825.0
135155.0
134467.0
133189.0
132631.0
132134.0
131698.0
131332.0
130753.0
130724.0
130749.0
130803.0
130868.0
130942.0
131032.0
131155.0
131317.0
131515.0
131731.0
131938.0
132110.0
132233.0
132308.0
132352.0
132395.0
132649.0
132768.0
132883.0
132977.0
133045.0
133086.0
133110.0
133120.0
133122.0
133085.0
133057.0
133021.0
132978.0
132923.0
132854.0
132770.0
132679.0
132592.0
132523.0
132477.0
132448.0
132426.0
132393.0
132346.0
132292.0
132253.0
132255.0
132403.0
132511.0
132602.0
132659.0
132694.0
132760.0
132919.0
133216.0
133652.0
134170.0
134665.0
135037.0
135212.0
135173.0
134960.0
134629.0
134222.0
133743.0
133173.0
132500.0
131765.0
131067.0
130542.0
130296.0
130338.0
130562.0
130778.0
129688.0
129526.0
129729.0
130197.0
130636.0
130711.0
130264.0
129481.0
128927.0
129366.0
131429.0
135280.0
140396.0
145629.0
149534.0
150869.0
149079.0
144534.0
138434.0
132415.0
127974.0
125973.0
126402.0
128474.0
131012.0
132930.0
133624.0
133115.0
131915.0
130725.0
130088.0
130182.0
130814.0
131562.0
132030.0
132029.0
131630.0
131097.0
130721.0
130669.0
130928.0
131327.0
131656.0
131772.0
131669.0
131460.0
131306.0
131322.0
131526.0
131841.0
132137.0
132314.0
132341.0
132260.0
132161.0
132125.0
132191.0
132339.0
132756.0
132805.0
132848.0
132929.0
133070.0
133272.0
133516.0
133778.0
134045.0
134315.0
134593.0
135184.0
135486.0
135779.0
136056.0
136323.0
136585.0
137099.0
137314.0
137453.0
137473.0
137347.0
137062.0
136639.0
136109.0
135511.0
132307.0
131759.0
131304.0
130970.0
130766.0
130692.0
130753.0
130827.0
130892.0
130946.0
131006.0
131087.0
131208.0
131371.0
131559.0
131742.0
131896.0
132002.0
132065.0
132103.0
132146.0
132215.0
132327.0
132475.0
132642.0
133038.0
133098.0
133130.0
133144.0
133148.0
133153.0
133157.0
133164.0
133170.0
133172.0
133164.0
133138.0
133084.0
132998.0
132877.0
132738.0
132598.0
132488.0
132427.0
132414.0
132429.0
132444.0
132429.0
132378.0
132303.0
132236.0
132218.0
132270.0
132379.0
132515.0
132628.0
132691.0
132719.0
132892.0
133172.0
133609.0
134152.0
134688.0
135101.0
135307.0
135279.0
135053.0
134701.0
134277.0
133799.0
133256.0
132632.0
131951.0
131299.0
130793.0
130536.0
130543.0
130716.0
129419.0
129161.0
129309.0
129795.0
130314.0
129653.0
129101.0
129400.0
131222.0
134814.0
139762.0
145001.0
149117.0
150820.0
149439.0
145213.0
139239.0
133117.0
128387.0
126020.0
126129.0
128020.0
130548.0
132587.0
133449.0
133070.0
131910.0
130672.0
129949.0
129983.0
130629.0
131480.0
132110.0
132279.0
132003.0
131519.0
131115.0
131957.0
131842.0
131594.0
131371.0
131304.0
131428.0
131685.0
131960.0
132143.0
132193.0
132140.0
132068.0
132059.0
132152.0
132334.0
132548.0
132732.0
132848.0
132899.0
132925.0
132972.0
133074.0
133237.0
133446.0
134426.0
134717.0
135042.0
135386.0
135729.0
136048.0
136331.0
136572.0
136780.0
136969.0
137138.0
137274.0
137342.0
136756.0
136238.0
135589.0
134865.0
134122.0
133422.0
132809.0
132304.0
131905.0
131594.0
131347.0
131147.0
130981.0
130853.0
130747.0
130782.0
130873.0
131002.0
131151.0
131303.0
131444.0
131572.0
131692.0
131815.0
131949.0
132100.0
132264.0
132432.0
132593.0
132735.0
132852.0
133023.0
133037.0
133042.0
133043.0
133047.0
133063.0
133089.0
133127.0
133186.0
133135.0
133063.0
132984.0
132916.0
132870.0
132842.0
132826.0
132804.0
132757.0
132678.0
132574.0
132467.0
132388.0
132352.0
132359.0
132389.0
132413.0
132407.0
132364.0
132307.0
132274.0
132297.0
132390.0
132534.0
132688.0
132803.0
133072.0
133362.0
133786.0
134273.0
134707.0
134988.0
135054.0
134914.0
134627.0
134266.0
133868.0
133423.0
132897.0
132268.0
131574.0
130924.0
130459.0
130277.0
130373.0
130620.0
130807.0
130758.0
130412.0
129895.0
129449.0
130721.0
130274.0
129535.0
129116.0
129796.0
146715.0
150275.0
151087.0
148735.0
143749.0
137465.0
131553.0
127448.0
125874.0
126664.0
128918.0
131422.0
133138.0
133566.0
132834.0
131526.0
130354.0
129822.0
130043.0
130763.0
131039.0
130701.0
130689.0
130970.0
131804.0
131719.0
131548.0
131431.0
131465.0
131651.0
131911.0
132142.0
132268.0
132211.0
132255.0
132376.0
132536.0
132676.0
132755.0
132779.0
132781.0
132815.0
132917.0
133099.0
133335.0
133587.0
133822.0
134422.0
134653.0
134920.0
135210.0
135505.0
135791.0
136063.0
136324.0
136585.0
136840.0
137076.0
137250.0
137316.0
136993.0
136597.0
136081.0
135488.0
134862.0
134235.0
133632.0
133065.0
132539.0
132064.0
131649.0
131306.0
131045.0
130863.0
130760.0
130720.0
130734.0
130792.0
131008.0
131156.0
131318.0
131487.0
131649.0
131798.0
131935.0
132065.0
132191.0
132582.0
132696.0
132791.0
132865.0
132925.0
132977.0
133030.0
133084.0
133132.0
133165.0
133171.0
133152.0
133108.0
133048.0
132985.0
132928.0
132883.0
132851.0
132813.0
132799.0
132782.0
132762.0
132732.0
132689.0
132635.0
132585.0
132546.0
132523.0
132510.0
132498.0
132464.0
132400.0
132310.0
132217.0
132157.0
132158.0
132232.0
132361.0
132505.0
132626.0
132713.0
132784.0
132891.0
133093.0
133424.0
133865.0
134344.0
134761.0
135023.0
135082.0
134263.0
133802.0
133268.0
132652.0
131972.0
131299.0
130748.0
130434.0
130402.0
130586.0
130819.0
130895.0
130683.0
130198.0
129625.0
129229.0
129222.0
129622.0
130215.0
130640.0
130592.0
130032.0
129319.0
129149.0
137827.0
143277.0
148220.0
151206.0
151215.0
148055.0
142484.0
135973.0
130201.0
126488.0
125377.0
126523.0
128932.0
131388.0
132946.0
133219.0
132434.0
131205.0
130205.0
129863.0
130212.0
130963.0
131686.0
132046.0
131945.0
131528.0
131080.0
130853.0
130950.0
131691.0
131945.0
131958.0
131767.0
131511.0
131348.0
131376.0
131590.0
131901.0
132187.0
132354.0
132385.0
132322.0
132249.0
132238.0
132314.0
132462.0
132636.0
132791.0
132901.0
132972.0
133034.0
133117.0
133240.0
134463.0
134776.0
135094.0
135403.0
136187.0
136404.0
136609.0
136806.0
136986.0
137127.0
137196.0
137158.0
136989.0
136676.0
136233.0
135680.0
135055.0
134398.0
133745.0
133132.0
132583.0
132110.0
131719.0
131407.0
131169.0
130994.0
130873.0
130802.0
130771.0
130775.0
130809.0
130870.0
130957.0
131073.0
131218.0
131389.0
131586.0
131795.0
132003.0
132201.0
132380.0
132534.0
132668.0
132787.0
132895.0
132996.0
133087.0
133161.0
133213.0
133239.0
133244.0
133237.0
133234.0
133242.0
133267.0
133305.0
133344.0
133367.0
133359.0
133313.0
133233.0
133129.0
133024.0
132934.0
132873.0
132846.0
132841.0
132840.0
132827.0
132788.0
132719.0
132630.0
132547.0
132496.0
132495.0
132543.0
132614.0
132668.0
132666.0
132586.0
132442.0
132277.0
132152.0
132118.0
132191.0
132344.0
132518.0
132649.0
132699.0
132688.0
132681.0
132768.0
133019.0
133438.0
133956.0
134456.0
134813.0
134950.0
134858.0
134592.0
134228.0
133824.0
133386.0
132885.0
132295.0
131640.0
131006.0
130520.0
130283.0
130303.0
130481.0
130633.0
130587.0
130282.0
129823.0
129429.0
129637.0
130213.0
130751.0
130913.0
130550.0
129869.0
129444.0
130031.0
146295.0
149892.0
150857.0
148720.0
143940.0
137776.0
131866.0
127647.0
125897.0
126516.0
128665.0
131160.0
132965.0
133542.0
132975.0
131807.0
130725.0
130232.0
130455.0
131157.0
131913.0
132348.0
132307.0
131901.0
131406.0
131104.0
131140.0
131464.0
131885.0
132189.0
132248.0
132081.0
131829.0
131663.0
131702.0
131951.0
132311.0
132642.0
132826.0
132824.0
132685.0
132503.0
132370.0
132334.0
132390.0
132491.0
132587.0
132655.0
132706.0
132772.0
132885.0
133060.0
133285.0
133531.0
133773.0
133996.0
134207.0
134425.0
134667.0
134945.0
135248.0
135565.0
135875.0
136167.0
136438.0
136682.0
136895.0
137064.0
137166.0
137173.0
137056.0
136804.0
135397.0
134816.0
134238.0
133684.0
133165.0
132684.0
132233.0
131815.0
131433.0
131100.0
130835.0
130655.0
130566.0
130567.0
130642.0
131074.0
131236.0
131410.0
131609.0
132093.0
132352.0
132581.0
132750.0
132834.0
132833.0
132773.0
132691.0
132632.0
132629.0
132688.0
132795.0
132923.0
133038.0
133124.0
133182.0
133223.0
133270.0
133334.0
133406.0
133468.0
133486.0
133441.0
133327.0
133162.0
132981.0
132822.0
132706.0
132642.0
132616.0
132603.0
132587.0
132564.0
132545.0
132550.0
132591.0
132666.0
132756.0
132821.0
132830.0
132771.0
132662.0
132535.0
132424.0
132359.0
132338.0
132340.0
132338.0
132315.0
132269.0
132226.0
132211.0
132705.0
132853.0
133053.0
133337.0
134115.0
134490.0
134751.0
134845.0
134772.0
134572.0
134305.0
134005.0
133661.0
133225.0
132654.0
131959.0
131236.0
130635.0
130304.0
130302.0
130898.0
130459.0
129912.0
129519.0
129477.0
129781.0
130215.0
130447.0
130239.0
129649.0
129114.0
129338.0
131010.0
134442.0
139311.0
144628.0
149002.0
151098.0
150147.0
146260.0
140443.0
134256.0
129276.0
126562.0
126331.0
127973.0
130374.0
132396.0
133304.0
132983.0
131861.0
130633.0
129908.0
129945.0
130608.0
131480.0
132114.0
132249.0
131902.0
131320.0
130828.0
130651.0
130823.0
131201.0
131554.0
131707.0
131620.0
131402.0
131224.0
131238.0
132281.0
132532.0
132565.0
132411.0
132179.0
131994.0
131943.0
132035.0
132213.0
132395.0
132520.0
132568.0
132579.0
132616.0
132738.0
132971.0
133296.0
133672.0
134044.0
134372.0
134645.0
134876.0
135089.0
135307.0
135547.0
135809.0
136088.0
136367.0
136640.0
136896.0
137122.0
137303.0
137410.0
137416.0
137292.0
137026.0
136624.0
136103.0
135494.0
134830.0
134149.0
133473.0
132828.0
132231.0
131709.0
131277.0
130958.0
130756.0
130665.0
130660.0
130709.0
130780.0
130855.0
130929.0
131018.0
131981.0
132151.0
132255.0
132296.0
132299.0
132666.0
132802.0
132919.0
133009.0
133082.0
133146.0
133209.0
133274.0
133330.0
133351.0
133307.0
133252.0
133200.0
133149.0
133099.0
133037.0
132961.0
132864.0
132762.0
132672.0
132611.0
132591.0
132612.0
132663.0
132718.0
132760.0
132775.0
132763.0
132729.0
132686.0
132642.0
132608.0
132581.0
132562.0
132541.0
132510.0
132463.0
132402.0
132337.0
132283.0
132266.0
132302.0
132392.0
132522.0
132659.0
132770.0
132831.0
132849.0
132859.0
132922.0
133095.0
133401.0
133816.0
134269.0
134668.0
134933.0
135026.0
134960.0
134779.0
134518.0
134184.0
133750.0
133175.0
132461.0
131678.0
130967.0
130481.0
130737.0
130937.0
130864.0
130466.0
129884.0
129377.0
129202.0
129459.0
130004.0
130500.0
130592.0
130137.0
129377.0
128931.0
129590.0
131965.0
136138.0
141477.0
150456.0
151425.0
149208.0
144315.0
138059.0
132116.0
127927.0
126240.0
126906.0
129043.0
131447.0
133087.0
130251.0
129755.0
130017.0
130764.0
131547.0
131976.0
131904.0
131453.0
130917.0
130591.0
130625.0
130969.0
131432.0
131791.0
131800.0
131580.0
131408.0
131391.0
131539.0
131765.0
131961.0
132047.0
132016.0
131927.0
131868.0
131898.0
132030.0
132219.0
132400.0
132523.0
132584.0
132617.0
132675.0
132802.0
133006.0
133267.0
133544.0
133800.0
134027.0
134237.0
134456.0
134707.0
134994.0
135307.0
135622.0
135923.0
136200.0
136460.0
136712.0
136958.0
137186.0
137369.0
137468.0
137447.0
137283.0
136970.0
136523.0
135964.0
135322.0
134630.0
133921.0
133232.0
132598.0
132047.0
131598.0
131258.0
131016.0
130857.0
130760.0
130706.0
130688.0
131042.0
131241.0
131454.0
131656.0
131830.0
131963.0
132068.0
132161.0
132266.0
132397.0
132559.0
132734.0
132897.0
133013.0
133065.0
133056.0
133007.0
132961.0
132961.0
133029.0
133166.0
133337.0
133490.0
133575.0
133560.0
133443.0
133255.0
133047.0
132868.0
132679.0
132649.0
132629.0
132597.0
132555.0
132521.0
132517.0
132557.0
132630.0
132706.0
132747.0
132723.0
132632.0
132504.0
132389.0
132328.0
132341.0
132411.0
132526.0
132491.0
132396.0
132291.0
132240.0
132288.0
132440.0
132647.0
132836.0
132944.0
132949.0
132893.0
132863.0
133636.0
134123.0
134563.0
134855.0
134958.0
134890.0
134705.0
134452.0
134138.0
133723.0
133160.0
132447.0
130259.0
130361.0
130584.0
130710.0
130580.0
130179.0
129667.0
129296.0
129277.0
130567.0
130496.0
129946.0
129272.0
129160.0
130354.0
133316.0
137908.0
143298.0
148150.0
151045.0
151000.0
147857.0
142379.0
136020.0
130418.0
126840.0
125790.0
126910.0
129214.0
131528.0
132956.0
133152.0
132359.0
131183.0
130264.0
130369.0
131098.0
131762.0
132051.0
131896.0
131353.0
131740.0
131960.0
131933.0
131462.0
131332.0
131415.0
131688.0
132042.0
132340.0
132490.0
132477.0
132357.0
132227.0
132167.0
132211.0
132341.0
132506.0
132656.0
132766.0
132844.0
132916.0
133013.0
133154.0
133342.0
133565.0
133812.0
134072.0
134345.0
134633.0
134938.0
135254.0
135570.0
135875.0
136160.0
136423.0
136671.0
136900.0
137110.0
137290.0
137388.0
137184.0
136841.0
136361.0
135770.0
135100.0
134396.0
133704.0
133062.0
132495.0
132013.0
131612.0
131281.0
131013.0
130800.0
130648.0
130562.0
130549.0
130611.0
130735.0
130903.0
131090.0
131277.0
131449.0
131602.0
131742.0
131876.0
132009.0
132143.0
132272.0
132392.0
132499.0
132599.0
132698.0
132806.0
132922.0
133043.0
133155.0
133248.0
133313.0
133349.0
133368.0
133382.0
133406.0
133441.0
133478.0
133497.0
133479.0
133306.0
133167.0
133019.0
132888.0
132787.0
132720.0
132679.0
132654.0
132635.0
132617.0
132599.0
132584.0
132574.0
132566.0
132560.0
132554.0
132554.0
132567.0
132596.0
132635.0
132668.0
132676.0
132649.0
132591.0
132527.0
132492.0
132512.0
132592.0
132715.0
132831.0
132902.0
132912.0
132887.0
132890.0
132991.0
133239.0
133628.0
134090.0
134525.0
134842.0
134980.0
134941.0
134763.0
134493.0
134150.0
133715.0
133165.0
132494.0
131763.0
131089.0
130605.0
130394.0
130429.0
130579.0
130657.0
130518.0
130148.0
129686.0
129364.0
129371.0
129740.0
130290.0
130694.0
130674.0
130189.0
129571.0
129462.0
130582.0
133388.0
137767.0
142938.0
147611.0
150412.0
150368.0
147308.0
141969.0
135767.0
130316.0
126873.0
125936.0
127144.0
129513.0
131867.0
133304.0
133483.0
132658.0
131450.0
130651.0
131399.0
132058.0
132302.0
132061.0
131517.0
130980.0
130713.0
130808.0
131170.0
131579.0
131821.0
131796.0
131556.0
131259.0
131084.0
131134.0
131400.0
131780.0
132131.0
132353.0
132419.0
132375.0
132309.0
132295.0
132359.0
132480.0
132609.0
132704.0
132749.0
132769.0
132802.0
132885.0
133031.0
133233.0
133469.0
133713.0
133958.0
134207.0
134472.0
134768.0
135093.0
135441.0
135794.0
136134.0
136454.0
136749.0
137018.0
137256.0
137448.0
137571.0
137590.0
137476.0
137215.0
136807.0
136275.0
135646.0
134960.0
134254.0
133571.0
132938.0
132378.0
131907.0
131528.0
131245.0
131051.0
130931.0
130873.0
130854.0
130864.0
130889.0
130929.0
130990.0
131071.0
131182.0
131324.0
131489.0
131991.0
132133.0
132263.0
132388.0
132518.0
132654.0
132795.0
132929.0
133042.0
133124.0
133173.0
133193.0
133194.0
133190.0
133189.0
133191.0
133197.0
133199.0
133190.0
133169.0
133137.0
133099.0
133060.0
133023.0
132990.0
132957.0
132930.0
132908.0
132893.0
132884.0
132875.0
132858.0
132822.0
132756.0
132659.0
132547.0
132445.0
132384.0
132381.0
132436.0
132521.0
132596.0
132624.0
132590.0
132507.0
132414.0
132619.0
132740.0
132807.0
132822.0
132827.0
132898.0
133103.0
133465.0
133945.0
135113.0
135152.0
135005.0
134729.0
134363.0
133914.0
133364.0
132695.0
131940.0
131198.0
130608.0
130294.0
130286.0
130490.0
130715.0
130756.0
130506.0
129270.0
129412.0
129904.0
130482.0
130793.0
130611.0
130025.0
129514.0
129793.0
131539.0
135011.0
139833.0
144978.0
149063.0
150810.0
149539.0
145459.0
139633.0
133620.0
128940.0
126558.0
128395.0
130826.0
132791.0
133611.0
133220.0
132073.0
130847.0
130120.0
130126.0
130715.0
131486.0
132030.0
132115.0
131776.0
131256.0
130854.0
130766.0
131776.0
131923.0
131820.0
131568.0
131331.0
131258.0
131398.0
131701.0
132043.0
132302.0
132414.0
132385.0
132292.0
132213.0
132208.0
132284.0
132410.0
132534.0
132623.0
132674.0
132708.0
132762.0
132862.0
133019.0
133230.0
133474.0
133735.0
134007.0
134284.0
134568.0
134858.0
135148.0
135439.0
135724.0
136004.0
136284.0
136567.0
136847.0
137106.0
137318.0
137444.0
137450.0
137306.0
137003.0
136553.0
135988.0
135346.0
134682.0
134033.0
133436.0
132901.0
132434.0
132026.0
131672.0
130970.0
130884.0
130873.0
130923.0
131015.0
131127.0
131243.0
131362.0
131485.0
131623.0
131776.0
131940.0
132103.0
132251.0
132371.0
132470.0
132551.0
132631.0
132716.0
132808.0
132899.0
132973.0
133018.0
133037.0
133069.0
133102.0
133129.0
133139.0
133121.0
133082.0
133034.0
132989.0
132954.0
132925.0
132888.0
132839.0
132776.0
132714.0
132676.0
132677.0
132723.0
132799.0
132871.0
132902.0
132867.0
132770.0
132642.0
132532.0
132477.0
132489.0
132549.0
132614.0
132637.0
132599.0
132509.0
132372.0
132463.0
132593.0
132714.0
132799.0
132856.0
132938.0
133106.0
133403.0
133823.0
134301.0
134736.0
135035.0
135149.0
135084.0
134882.0
134594.0
134228.0
133768.0
133177.0
132458.0
131679.0
130977.0
130498.0
130328.0
130434.0
130659.0
130786.0
130651.0
130239.0
129702.0
129299.0
129252.0
129601.0
130156.0
130569.0
130530.0
129984.0
129271.0
129073.0
137557.0
142965.0
147906.0
150937.0
151035.0
148007.0
142601.0
136276.0
130692.0
127136.0
127262.0
129559.0
131814.0
133119.0
133152.0
132194.0
130899.0
129939.0
129706.0
130181.0
131019.0
131757.0
132062.0
131863.0
131350.0
130839.0
130598.0
130715.0
131092.0
131503.0
131741.0
131722.0
131509.0
131269.0
131172.0
131311.0
131653.0
132073.0
132418.0
132591.0
132585.0
132476.0
132373.0
132361.0
132463.0
132640.0
132819.0
132935.0
132967.0
132942.0
132914.0
132940.0
133050.0
133238.0
133478.0
133733.0
133979.0
134220.0
134743.0
135046.0
135372.0
135699.0
136005.0
136277.0
136519.0
136745.0
136968.0
137187.0
137378.0
137493.0
137479.0
137294.0
136376.0
135713.0
134997.0
134299.0
133661.0
133105.0
132621.0
132189.0
131790.0
131420.0
131092.0
130836.0
130677.0
130629.0
130682.0
130806.0
130961.0
131115.0
131246.0
131348.0
131432.0
131518.0
131620.0
131746.0
131891.0
132048.0
132206.0
132356.0
132492.0
132612.0
132712.0
132794.0
132857.0
132907.0
132951.0
132998.0
133055.0
133120.0
133187.0
133239.0
133263.0
133244.0
132888.0
132802.0
132732.0
132673.0
132614.0
132554.0
132497.0
132449.0
132416.0
132395.0
132378.0
132355.0
132326.0
132300.0
132294.0
132326.0
132402.0
132506.0
132606.0
132669.0
132683.0
132674.0
132698.0
132828.0
133111.0
133547.0
134074.0
134588.0
135156.0
134967.0
134664.0
134284.0
133831.0
133281.0
132620.0
131890.0
131194.0
130662.0
130404.0
130422.0
130606.0
130766.0
130722.0
130406.0
129920.0
129485.0
129344.0
129605.0
130150.0
130672.0
130821.0
130438.0
129714.0
129221.0
129735.0
131895.0
135852.0
141063.0
146352.0
150250.0
151502.0
149549.0
144778.0
138421.0
132150.0
127496.0
125348.0
125709.0
127785.0
130384.0
132393.0
133182.0
132748.0
131596.0
129919.0
130587.0
131395.0
131939.0
132010.0
130793.0
131085.0
131536.0
131932.0
132120.0
132071.0
131889.0
131728.0
131712.0
131877.0
132161.0
132443.0
132618.0
132640.0
132536.0
132388.0
132277.0
132260.0
132336.0
132468.0
132607.0
132723.0
132807.0
132884.0
132979.0
133113.0
133293.0
133514.0
133765.0
134039.0
134332.0
134641.0
134958.0
135269.0
135557.0
135808.0
136027.0
136228.0
136431.0
136652.0
136882.0
137094.0
137243.0
137278.0
137162.0
136887.0
136477.0
135980.0
135440.0
134896.0
134362.0
133838.0
133315.0
132787.0
132268.0
131785.0
131379.0
131088.0
130924.0
130883.0
130924.0
131005.0
131086.0
131144.0
131180.0
131216.0
131277.0
131386.0
131539.0
131725.0
131918.0
132093.0
132240.0
132363.0
132475.0
132592.0
132722.0
132862.0
132995.0
133101.0
133163.0
133177.0
133151.0
133105.0
133056.0
133022.0
133010.0
133015.0
133028.0
133031.0
133014.0
132972.0
132907.0
132826.0
132739.0
132664.0
132620.0
132612.0
132634.0
132666.0
132681.0
132653.0
132574.0
132457.0
132334.0
132244.0
132218.0
132262.0
132353.0
132452.0
132529.0
132648.0
132782.0
133038.0
133436.0
133935.0
134453.0
134886.0
135158.0
135240.0
135156.0
134955.0
134676.0
134314.0
133834.0
130593.0
130516.0
130696.0
130949.0
130855.0
130386.0
129839.0
129489.0
129546.0
130011.0
130653.0
131102.0
131063.0
130527.0
129885.0
129836.0
131114.0
134121.0
138642.0
143774.0
148156.0
150420.0
149702.0
146003.0
140233.0
133925.0
128698.0
125707.0
125288.0
126917.0
129504.0
132202.0
130970.0
130103.0
129945.0
130440.0
131239.0
131909.0
132164.0
131968.0
131517.0
131102.0
130951.0
131120.0
131491.0
131858.0
132043.0
131990.0
131775.0
131555.0
131479.0
131611.0
131907.0
132251.0
132519.0
132634.0
132611.0
132520.0
132452.0
132473.0
132586.0
132753.0
132911.0
133018.0
133064.0
133078.0
133104.0
133183.0
133326.0
133521.0
133737.0
133946.0
134135.0
134310.0
134488.0
134687.0
134919.0
135188.0
135481.0
135792.0
136109.0
136424.0
136727.0
137007.0
137241.0
137397.0
137438.0
137332.0
137059.0
136626.0
136052.0
135378.0
134655.0
133937.0
133270.0
132687.0
132206.0
131826.0
131538.0
131325.0
131173.0
131069.0
131008.0
130991.0
131018.0
131095.0
131216.0
131371.0
131546.0
131715.0
131854.0
131949.0
131996.0
132009.0
132015.0
132046.0
132131.0
132275.0
132467.0
132679.0
132872.0
133010.0
133085.0
133099.0
133078.0
133049.0
133037.0
133049.0
133081.0
133112.0
133131.0
133123.0
133097.0
133059.0
132961.0
132913.0
132838.0
132733.0
132610.0
132491.0
132399.0
132341.0
132315.0
132306.0
132296.0
132281.0
132265.0
132264.0
132295.0
132364.0
132457.0
132554.0
132642.0
132725.0
132838.0
133029.0
133335.0
133756.0
134244.0
134708.0
135054.0
134672.0
134315.0
133906.0
133417.0
132812.0
130793.0
130448.0
130410.0
130609.0
130863.0
130963.0
130772.0
130313.0
129775.0
129417.0
129432.0
129815.0
130338.0
130654.0
130499.0
129897.0
129258.0
129282.0
130682.0
133832.0
138483.0
143715.0
148165.0
134408.0
129327.0
126450.0
126080.0
127686.0
130186.0
132418.0
133576.0
133460.0
132436.0
131178.0
130318.0
130178.0
130682.0
131462.0
132079.0
132250.0
131961.0
131428.0
130961.0
130796.0
130990.0
131414.0
131842.0
131597.0
131475.0
131549.0
131782.0
132348.0
132296.0
132192.0
132130.0
132168.0
132306.0
132494.0
132668.0
132785.0
132838.0
132870.0
132930.0
133054.0
133252.0
133496.0
133748.0
133977.0
134171.0
134345.0
134529.0
134751.0
135021.0
135332.0
135661.0
135984.0
136286.0
136559.0
136808.0
137030.0
137214.0
137336.0
137356.0
137236.0
136957.0
136522.0
135958.0
135311.0
134634.0
133973.0
133365.0
132822.0
131916.0
131537.0
131212.0
130948.0
130763.0
130669.0
130671.0
130758.0
131478.0
131643.0
131787.0
131916.0
132040.0
132166.0
132295.0
132421.0
132533.0
132624.0
132688.0
132730.0
132759.0
133046.0
133100.0
133119.0
133105.0
133012.0
132976.0
132964.0
132976.0
132994.0
132995.0
132955.0
132864.0
132734.0
132595.0
132481.0
132415.0
132399.0
132414.0
132426.0
132410.0
132355.0
132287.0
132236.0
132245.0
132326.0
132464.0
132613.0
132728.0
133262.0
133693.0
134210.0
134708.0
135201.0
134983.0
134644.0
134219.0
133711.0
133104.0
132405.0
131670.0
131015.0
130548.0
130792.0
130946.0
130829.0
130404.0
129806.0
129299.0
129134.0
129417.0
130005.0
130560.0
130725.0
130340.0
129622.0
129171.0
129755.0
131987.0
135960.0
141077.0
146137.0
149697.0
150591.0
148381.0
143559.0
137421.0
131609.0
127550.0
125981.0
126757.0
129005.0
131526.0
133284.0
133767.0
133092.0
131830.0
130685.0
130166.0
130391.0
131113.0
131895.0
132353.0
132326.0
131922.0
131412.0
131081.0
131075.0
131350.0
131727.0
131997.0
132038.0
131864.0
131603.0
131420.0
131421.0
131618.0
131924.0
132218.0
132407.0
132466.0
132425.0
132466.0
132586.0
132754.0
132912.0
133023.0
133077.0
133107.0
133157.0
133265.0
133435.0
133645.0
133858.0
134051.0
134221.0
134389.0
134583.0
134822.0
135097.0
135382.0
135637.0
135835.0
135976.0
136083.0
136195.0
136684.0
136784.0
136745.0
136514.0
136084.0
135487.0
134788.0
134062.0
133376.0
132771.0
132252.0
131805.0
131404.0
131030.0
130684.0
130383.0
130150.0
130008.0
129971.0
130026.0
130151.0
130315.0
130494.0
130667.0
130831.0
130990.0
131150.0
131317.0
131489.0
131658.0
132201.0
132296.0
132380.0
132454.0
132514.0
132569.0
132618.0
132669.0
132731.0
132811.0
132912.0
133027.0
133147.0
133257.0
133344.0
133397.0
133415.0
133400.0
133361.0
133308.0
133249.0
133196.0
133157.0
133136.0
133137.0
133148.0
133150.0
133132.0
133083.0
132970.0
133043.0
133096.0
133101.0
133003.0
133017.0
133179.0
133530.0
134043.0
134634.0
135170.0
135525.0
135625.0
135464.0
135098.0
134601.0
134031.0
133405.0
132717.0
131974.0
131224.0
130575.0
130148.0
130016.0
130562.0
130470.0
130094.0
129569.0
129149.0
129072.0
129408.0
130003.0
130514.0
130604.0
130154.0
129430.0
129064.0
129837.0
132325.0
136563.0
141869.0
146979.0
151077.0
148556.0
143451.0
137133.0
131284.0
127318.0
125918.0
126870.0
129230.0
131773.0
133471.0
133852.0
133079.0
131760.0
130605.0
130108.0
130358.0
131080.0
131830.0
132232.0
132152.0
131727.0
131243.0
130984.0
131074.0
131446.0
131894.0
132198.0
132232.0
132026.0
131720.0
131482.0
131425.0
131547.0
131760.0
131940.0
132003.0
131939.0
131817.0
131909.0
132140.0
132369.0
132526.0
132593.0
132587.0
132727.0
132941.0
133224.0
133548.0
133885.0
134942.0
135315.0
135687.0
136045.0
136377.0
136678.0
136949.0
137191.0
137401.0
137565.0
137659.0
137650.0
137517.0
137251.0
136864.0
136373.0
135803.0
135183.0
134532.0
133874.0
133230.0
132623.0
132077.0
131617.0
131261.0
131017.0
130879.0
130833.0
130852.0
130912.0
130992.0
131078.0
131162.0
131247.0
131335.0
131644.0
131757.0
131867.0
131971.0
132144.0
132211.0
132269.0
132317.0
132359.0
132397.0
132435.0
132479.0
132533.0
132728.0
132783.0
132814.0
132808.0
132765.0
132696.0
132621.0
132562.0
132533.0
132529.0
132534.0
132528.0
132494.0
132341.0
132362.0
132442.0
132560.0
132679.0
132768.0
132822.0
132872.0
132975.0
133183.0
133521.0
133956.0
134413.0
135067.0
134949.0
134720.0
134424.0
134073.0
133650.0
133133.0
132539.0
131942.0
131458.0
131196.0
131192.0
131367.0
131556.0
131566.0
131293.0
130783.0
130228.0
129880.0
129907.0
130286.0
130783.0
131058.0
130875.0
130284.0
129715.0
129861.0
144494.0
148726.0
150719.0
149681.0
145689.0
139711.0
133299.0
128062.0
125126.0
124794.0
126525.0
129221.0
131704.0
133135.0
133273.0
132446.0
131298.0
130458.0
130269.0
130696.0
131420.0
132041.0
132294.0
132152.0
131799.0
131511.0
131490.0
131776.0
132863.0
132775.0
132474.0
132117.0
131864.0
131796.0
131903.0
132090.0
132249.0
132316.0
132288.0
132222.0
132190.0
132240.0
132375.0
132557.0
132735.0
132874.0
132960.0
133013.0
133064.0
133139.0
133245.0
133382.0
133542.0
133718.0
133920.0
134156.0
134428.0
134724.0
135024.0
135306.0
135550.0
135756.0
135940.0
136121.0
136309.0
136494.0
136644.0
136705.0
136628.0
136382.0
135966.0
135406.0
134760.0
134084.0
133432.0
132837.0
132310.0
131842.0
131418.0
131025.0
130659.0
130330.0
130054.0
129849.0
129722.0
129658.0
129635.0
129359.0
129368.0
129490.0
129744.0
130114.0
130550.0
130992.0
131379.0
131670.0
131865.0
131990.0
132087.0
132933.0
133037.0
133052.0
132989.0
132873.0
132745.0
132644.0
132596.0
132766.0
132764.0
132721.0
132652.0
132596.0
132584.0
132633.0
132732.0
132845.0
132931.0
132959.0
132941.0
132926.0
132990.0
133203.0
133595.0
134134.0
134723.0
135244.0
135586.0
135698.0
135589.0
135313.0
134933.0
134483.0
133969.0
133377.0
132714.0
132039.0
131458.0
131081.0
130966.0
131070.0
131251.0
131331.0
131186.0
130819.0
130384.0
130105.0
130158.0
130549.0
131082.0
131436.0
131349.0
130812.0
130176.0
130081.0
131221.0
149771.0
149324.0
145999.0
140596.0
134548.0
129423.0
126389.0
125847.0
127359.0
129898.0
132290.0
133670.0
133740.0
132801.0
131492.0
130483.0
130159.0
130524.0
131254.0
131920.0
131546.0
131070.0
130842.0
130954.0
131739.0
132022.0
132071.0
131922.0
131703.0
131552.0
131549.0
131679.0
131860.0
132000.0
132045.0
132010.0
131959.0
131963.0
132065.0
132246.0
132449.0
132657.0
132671.0
132774.0
132985.0
133277.0
133609.0
133937.0
135008.0
135274.0
135553.0
135837.0
136115.0
136381.0
136636.0
136876.0
137095.0
137274.0
137383.0
137380.0
137234.0
136932.0
136480.0
135910.0
133956.0
133364.0
132841.0
132392.0
132015.0
131710.0
131484.0
131339.0
131276.0
131287.0
131344.0
131408.0
131439.0
131414.0
131327.0
131204.0
131088.0
131206.0
131430.0
131693.0
131947.0
132153.0
132299.0
132825.0
132993.0
133154.0
133286.0
133418.0
133423.0
133396.0
133347.0
133281.0
133202.0
133118.0
133038.0
132971.0
132915.0
132860.0
132790.0
132691.0
132565.0
132438.0
132339.0
132307.0
132350.0
132457.0
132584.0
132683.0
132726.0
133542.0
134083.0
134623.0
135039.0
135237.0
135195.0
134945.0
134554.0
134084.0
133560.0
131617.0
130953.0
130446.0
130191.0
130205.0
130398.0
130621.0
130396.0
129983.0
129579.0
129408.0
129582.0
130026.0
130479.0
130628.0
130320.0
129710.0
129308.0
129816.0
131833.0
135517.0
140394.0
145389.0
149140.0
150458.0
148792.0
144458.0
138581.0
132707.0
128279.0
126153.0
126360.0
128184.0
130518.0
132318.0
132990.0
132531.0
131416.0
130309.0
129740.0
129891.0
130583.0
131412.0
131984.0
132096.0
131803.0
131351.0
131021.0
130989.0
131251.0
131647.0
131968.0
132063.0
131917.0
131633.0
131372.0
131269.0
131363.0
131597.0
131864.0
132062.0
132147.0
132148.0
132142.0
132613.0
132893.0
133148.0
133338.0
133467.0
133568.0
133684.0
133847.0
134069.0
134337.0
134630.0
134925.0
135210.0
135480.0
135737.0
135978.0
136205.0
136412.0
136600.0
136773.0
136936.0
137091.0
137231.0
137332.0
137372.0
137313.0
137127.0
136795.0
136324.0
135059.0
134343.0
133627.0
132947.0
132337.0
131813.0
131385.0
131051.0
130802.0
130495.0
130515.0
130586.0
130701.0
130848.0
131015.0
131521.0
131672.0
131813.0
131951.0
132088.0
132224.0
132356.0
132482.0
132594.0
132847.0
132905.0
132951.0
132980.0
132994.0
132991.0
132978.0
132962.0
132951.0
132952.0
132963.0
132977.0
132982.0
132969.0
132932.0
132882.0
132869.0
132902.0
132904.0
132860.0
132770.0
132663.0
132582.0
132554.0
132590.0
132662.0
132728.0
132753.0
132731.0
132699.0
132732.0
132902.0
133250.0
133750.0
134311.0
134810.0
135134.0
135221.0
135077.0
134753.0
134315.0
133806.0
133236.0
132600.0
131913.0
131245.0
130700.0
130388.0
130351.0
130529.0
130760.0
130856.0
130691.0
130288.0
129816.0
129522.0
129583.0
129999.0
130554.0
130905.0
130788.0
130216.0
129577.0
129566.0
130901.0
133986.0
138620.0
143922.0
148541.0
151097.0
150688.0
147247.0
141625.0
135313.0
129931.0
126677.0
125954.0
133254.0
133267.0
132329.0
131093.0
131300.0
131974.0
132211.0
131960.0
131418.0
130894.0
130642.0
130748.0
131110.0
131515.0
131765.0
131769.0
131584.0
131357.0
131249.0
131341.0
132429.0
132460.0
132414.0
132373.0
132401.0
132508.0
132663.0
132810.0
132902.0
132938.0
132941.0
132955.0
133021.0
133156.0
133349.0
133582.0
134667.0
134986.0
135317.0
135646.0
135953.0
136227.0
136470.0
136686.0
136885.0
137064.0
137207.0
137282.0
136306.0
135729.0
135078.0
134394.0
133716.0
133078.0
132500.0
131999.0
131581.0
131251.0
131011.0
130858.0
130790.0
130795.0
130856.0
130959.0
131081.0
131214.0
131346.0
131475.0
131601.0
132309.0
132440.0
132552.0
132637.0
132749.0
132788.0
132829.0
132870.0
132914.0
132953.0
132986.0
133011.0
133033.0
133050.0
133064.0
133074.0
133068.0
133039.0
132976.0
132879.0
132768.0
132668.0
132604.0
132585.0
132603.0
132630.0
132631.0
132587.0
132498.0
132392.0
132310.0
132287.0
132337.0
132437.0
132545.0
132628.0
132674.0
132717.0
132824.0
133054.0
133438.0
133938.0
134465.0
134901.0
135153.0
135179.0
134999.0
134676.0
133819.0
133304.0
132711.0
132047.0
131377.0
130384.0
130505.0
130672.0
130704.0
130491.0
130067.0
129615.0
129371.0
129493.0
129948.0
130490.0
130776.0
130558.0
129893.0
129225.0
129279.0
130775.0
134076.0
138904.0
144304.0
148876.0
146804.0
140960.0
134557.0
129224.0
126125.0
125598.0
127133.0
129649.0
131967.0
133253.0
133262.0
132326.0
131100.0
130213.0
130008.0
130440.0
131985.0
131756.0
131284.0
130857.0
130704.0
130885.0
131293.0
131720.0
131986.0
131625.0
131708.0
131926.0
132180.0
132365.0
132425.0
132370.0
132267.0
132195.0
132205.0
132297.0
132437.0
132573.0
132673.0
132737.0
132793.0
133230.0
133477.0
133741.0
134001.0
134248.0
134489.0
134733.0
134986.0
135240.0
135487.0
135713.0
135918.0
136106.0
136287.0
136471.0
136652.0
136809.0
136905.0
136901.0
136762.0
136477.0
136053.0
135514.0
134906.0
134270.0
133651.0
133083.0
132586.0
132165.0
131821.0
131544.0
131326.0
131161.0
131046.0
130983.0
130971.0
131014.0
131101.0
131227.0
131373.0
131522.0
131664.0
131788.0
131899.0
132005.0
132118.0
132247.0
132399.0
132568.0
132742.0
132900.0
133028.0
133117.0
133162.0
133178.0
133177.0
133180.0
133196.0
133266.0
133252.0
133198.0
133111.0
133007.0
132911.0
132837.0
132792.0
132761.0
132726.0
132669.0
132585.0
132492.0
132420.0
132396.0
132434.0
132523.0
132621.0
132693.0
132720.0
132725.0
132762.0
132901.0
133193.0
133638.0
134166.0
134671.0
135039.0
134101.0
133630.0
133088.0
132459.0
130638.0
130414.0
130465.0
130683.0
130883.0
130883.0
130607.0
130140.0
129700.0
129531.0
129753.0
130270.0
130788.0
130965.0
130613.0
129893.0
129341.0
129706.0
131638.0
135328.0
149331.0
150717.0
149007.0
144522.0
138430.0
132346.0
127789.0
125661.0
125998.0
128054.0
130653.0
132689.0
133514.0
133108.0
131958.0
130766.0
130098.0
130166.0
130795.0
131578.0
132100.0
132148.0
131775.0
131369.0
131726.0
131880.0
131805.0
131601.0
131423.0
131396.0
131555.0
131834.0
132119.0
132306.0
132362.0
132322.0
132270.0
132285.0
132401.0
132599.0
132817.0
132992.0
133095.0
133139.0
133166.0
133228.0
133357.0
133559.0
133806.0
134071.0
135045.0
135299.0
135562.0
135822.0
136064.0
136280.0
136474.0
136650.0
136813.0
136953.0
137047.0
137064.0
136967.0
136729.0
136351.0
135851.0
135260.0
134625.0
133990.0
133389.0
131989.0
131670.0
131417.0
131227.0
131097.0
131020.0
130991.0
131007.0
131058.0
131136.0
131234.0
131345.0
131466.0
131592.0
131726.0
131866.0
132018.0
132174.0
132330.0
132480.0
132618.0
132734.0
132824.0
132894.0
132950.0
133001.0
133051.0
133100.0
133141.0
133166.0
133163.0
133133.0
133082.0
133023.0
132972.0
132935.0
132913.0
132899.0
132875.0
132832.0
132769.0
132703.0
132650.0
132629.0
132641.0
132669.0
132518.0
132433.0
132394.0
132422.0
132510.0
132623.0
132716.0
132764.0
132778.0
132809.0
132929.0
133195.0
133611.0
134126.0
134632.0
135017.0
135201.0
135164.0
134947.0
134609.0
134206.0
133750.0
133222.0
132606.0
131926.0
131268.0
130755.0
130488.0
130489.0
130664.0
130839.0
130837.0
130575.0
130124.0
129686.0
129488.0
129655.0
130104.0
129792.0
129342.0
129786.0
131743.0
135389.0
140257.0
145271.0
150382.0
148692.0
144291.0
138317.0
132352.0
127884.0
125801.0
126145.0
133608.0
133201.0
132043.0
130828.0
130131.0
130167.0
130780.0
131565.0
132115.0
132205.0
131876.0
131367.0
130973.0
130882.0
131102.0
131487.0
131822.0
131958.0
131864.0
131639.0
131442.0
131400.0
131552.0
131840.0
132147.0
132367.0
132456.0
132438.0
132479.0
132640.0
132826.0
132984.0
133085.0
133137.0
133179.0
133249.0
133373.0
133548.0
133754.0
133964.0
134165.0
134356.0
134554.0
134773.0
135025.0
135299.0
135580.0
136674.0
136828.0
136946.0
136993.0
135954.0
135385.0
134752.0
133464.0
132885.0
132382.0
131964.0
131630.0
131379.0
131199.0
131080.0
131016.0
130997.0
131017.0
131069.0
131148.0
131250.0
131368.0
131503.0
131646.0
131794.0
131935.0
132065.0
132183.0
132286.0
132382.0
132799.0
132913.0
133016.0
133103.0
133164.0
133199.0
133215.0
133215.0
133205.0
133188.0
133166.0
133139.0
133106.0
133069.0
133029.0
132989.0
132953.0
132916.0
132877.0
132831.0
132775.0
132709.0
132642.0
132589.0
132557.0
132552.0
132561.0
132566.0
132549.0
132501.0
132433.0
132455.0
132568.0
132673.0
132741.0
132774.0
132807.0
132904.0
133124.0
133488.0
133968.0
134478.0
134911.0
135175.0
135229.0
135090.0
134807.0
134438.0
134006.0
133501.0
132902.0
132217.0
131511.0
130902.0
130509.0
130395.0
130516.0
130724.0
130829.0
129855.0
129536.0
129546.0
129903.0
130415.0
130766.0
130696.0
130193.0
129609.0
129584.0
130806.0
133676.0
138027.0
143040.0
147439.0
149891.0
149519.0
146239.0
140850.0
125923.0
127368.0
129845.0
132190.0
133536.0
133596.0
132662.0
131377.0
130402.0
130119.0
130524.0
131290.0
131981.0
132276.0
132101.0
131624.0
131133.0
130881.0
130960.0
131281.0
131647.0
131870.0
131863.0
131673.0
131441.0
131319.0
131385.0
131622.0
131932.0
132199.0
132349.0
132378.0
132343.0
132328.0
132385.0
132529.0
132720.0
132902.0
133035.0
133108.0
133149.0
133195.0
133283.0
133418.0
133591.0
133781.0
133968.0
134155.0
134352.0
134576.0
135687.0
135936.0
136155.0
136350.0
136533.0
136703.0
136850.0
136944.0
136944.0
136816.0
136545.0
136138.0
135618.0
135027.0
134406.0
133797.0
132273.0
131894.0
131580.0
131328.0
131141.0
131017.0
130954.0
130952.0
131000.0
131091.0
131209.0
131345.0
131490.0
131633.0
131773.0
131906.0
132035.0
132159.0
132283.0
132408.0
132535.0
132658.0
132774.0
132881.0
132977.0
133058.0
133129.0
133188.0
133234.0
133268.0
133284.0
133282.0
133260.0
133222.0
133175.0
133126.0
133079.0
133036.0
132994.0
132948.0
132772.0
132708.0
132648.0
132600.0
132560.0
132466.0
132447.0
132445.0
132463.0
132492.0
132361.0
132330.0
132358.0
132448.0
132578.0
132708.0
132798.0
132829.0
133011.0
133306.0
133748.0
134268.0
134760.0
135117.0
135269.0
135207.0
134973.0
134621.0
134193.0
133696.0
133116.0
132455.0
131766.0
131148.0
130721.0
130557.0
130638.0
130835.0
130965.0
130877.0
130542.0
130077.0
129706.0
129632.0
129914.0
130409.0
130821.0
130857.0
130443.0
129619.0
132907.0
136870.0
141699.0
146213.0
149085.0
149320.0
146658.0
141708.0
135778.0
130428.0
126927.0
125850.0
126934.0
129264.0
131687.0
131598.0
130542.0
130121.0
130407.0
131133.0
131875.0
132277.0
132213.0
131801.0
131316.0
131023.0
131052.0
131352.0
131747.0
132044.0
132129.0
132018.0
131828.0
131699.0
131726.0
131905.0
132155.0
132365.0
132463.0
132441.0
132351.0
132279.0
132287.0
132390.0
132557.0
132725.0
132849.0
132971.0
133050.0
133188.0
133378.0
133596.0
133810.0
134013.0
134208.0
134413.0
134639.0
134894.0
135166.0
135440.0
135702.0
135945.0
136175.0
136396.0
136610.0
136807.0
136964.0
137037.0
136993.0
136803.0
136460.0
135980.0
135394.0
134745.0
134079.0
133437.0
132849.0
132335.0
131908.0
131567.0
131312.0
131142.0
131044.0
131085.0
131162.0
131254.0
131356.0
131469.0
131906.0
132080.0
132257.0
132424.0
132570.0
132690.0
132779.0
132840.0
132880.0
132910.0
132937.0
132968.0
133008.0
133054.0
133101.0
133138.0
133157.0
133149.0
133112.0
133055.0
132990.0
132934.0
132901.0
132895.0
132913.0
132941.0
132966.0
132973.0
132959.0
132924.0
132877.0
132830.0
132785.0
132744.0
132704.0
132666.0
132630.0
132605.0
132591.0
132588.0
132580.0
132555.0
132507.0
132442.0
132376.0
132341.0
132356.0
132425.0
132530.0
132638.0
132721.0
132772.0
132818.0
132912.0
133108.0
133436.0
133876.0
134362.0
134803.0
135114.0
135247.0
135201.0
135002.0
134680.0
134247.0
133698.0
133031.0
132282.0
131541.0
130936.0
130578.0
130505.0
130643.0
130828.0
130872.0
130668.0
129783.0
129513.0
129596.0
130006.0
130517.0
129485.0
130885.0
133955.0
138439.0
145570.0
140114.0
134187.0
129312.0
126561.0
126224.0
127787.0
130213.0
132388.0
133535.0
133450.0
132480.0
130701.0
131451.0
132080.0
132309.0
132100.0
131639.0
131201.0
131003.0
131105.0
131399.0
131699.0
131842.0
131771.0
131561.0
131351.0
131278.0
131398.0
131671.0
132242.0
132368.0
132378.0
132342.0
132339.0
132422.0
132586.0
132791.0
132970.0
133153.0
133183.0
133261.0
133400.0
133586.0
133795.0
133999.0
134193.0
134383.0
134583.0
134803.0
135045.0
135296.0
135541.0
135766.0
135972.0
136693.0
136824.0
136879.0
136821.0
136629.0
136291.0
133407.0
132858.0
132377.0
131972.0
131380.0
131190.0
131072.0
131015.0
131019.0
131067.0
131148.0
131246.0
131353.0
131463.0
131574.0
131686.0
131803.0
132174.0
132298.0
132420.0
132536.0
132648.0
132758.0
132864.0
132966.0
133262.0
133289.0
133296.0
133285.0
133264.0
133241.0
133217.0
133195.0
133170.0
133135.0
133086.0
133019.0
132941.0
132864.0
132800.0
132758.0
132740.0
132723.0
132686.0
132636.0
132588.0
132560.0
132561.0
132586.0
132612.0
132617.0
132583.0
132518.0
132444.0
132398.0
132403.0
132462.0
132554.0
132642.0
132699.0
132724.0
132755.0
132851.0
133064.0
133413.0
133864.0
134338.0
134738.0
134994.0
135074.0
134991.0
134779.0
134460.0
134030.0
133466.0
132766.0
131978.0
131216.0
130627.0
130327.0
130335.0
130545.0
130758.0
130779.0
130509.0
130024.0
129538.0
129309.0
129473.0
129962.0
130495.0
130720.0
130432.0
129755.0
129197.0
129498.0
131325.0
134915.0
139848.0
149360.0
145114.0
139142.0
133039.0
128333.0
125981.0
126092.0
127976.0
130496.0
132539.0
133430.0
133102.0
132012.0
130837.0
130153.0
130190.0
130797.0
131580.0
132131.0
132225.0
131902.0
131400.0
131016.0
130940.0
131183.0
131596.0
131965.0
132134.0
132067.0
131663.0
131605.0
131721.0
131953.0
132190.0
132334.0
132350.0
132272.0
132183.0
132159.0
132237.0
132395.0
132574.0
132719.0
132800.0
132837.0
133124.0
133352.0
133614.0
133869.0
134097.0
135192.0
135459.0
135710.0
135925.0
136424.0
136587.0
136746.0
136867.0
136903.0
136810.0
136565.0
136168.0
135643.0
135037.0
134404.0
133789.0
133227.0
132734.0
132312.0
131952.0
131646.0
131391.0
131192.0
131056.0
130989.0
131044.0
131139.0
131252.0
131366.0
131469.0
131565.0
131657.0
131760.0
131880.0
132022.0
132181.0
132345.0
132498.0
132630.0
132727.0
132793.0
132836.0
132863.0
132889.0
132919.0
132959.0
133008.0
133058.0
133103.0
133129.0
133131.0
133102.0
133044.0
132962.0
132615.0
132601.0
132577.0
132524.0
132327.0
132221.0
132154.0
132156.0
132226.0
132340.0
132449.0
132513.0
132519.0
132493.0
132507.0
132634.0
134483.0
134878.0
135059.0
135018.0
134802.0
134482.0
134107.0
133690.0
133205.0
132628.0
131982.0
131351.0
130856.0
130601.0
130606.0
130780.0
130950.0
130944.0
130691.0
130263.0
129864.0
129718.0
129938.0
130430.0
130920.0
131081.0
130736.0
130045.0
129520.0
129888.0
131770.0
135360.0
149060.0
150473.0
148870.0
144533.0
138565.0
132531.0
127912.0
125624.0
125759.0
127634.0
130145.0
132212.0
133173.0
130896.0
130245.0
130257.0
130800.0
131514.0
131052.0
130989.0
131210.0
131576.0
131959.0
131778.0
131627.0
131620.0
131785.0
132061.0
132335.0
132513.0
132559.0
132512.0
132449.0
132444.0
132533.0
132695.0
132876.0
133017.0
133090.0
133105.0
133107.0
133144.0
133249.0
133426.0
133654.0
133907.0
134160.0
134407.0
134653.0
134906.0
135167.0
135432.0
135688.0
135926.0
136145.0
136349.0
136548.0
136742.0
136915.0
137040.0
137074.0
136980.0
136738.0
136351.0
135844.0
133983.0
133367.0
132795.0
132281.0
131838.0
131479.0
131214.0
131040.0
130954.0
130935.0
130959.0
131009.0
131070.0
131140.0
131227.0
131337.0
131474.0
131631.0
131801.0
131967.0
132121.0
132256.0
132379.0
132493.0
132609.0
132726.0
132840.0
132946.0
133146.0
133173.0
133186.0
133185.0
133170.0
133142.0
133102.0
133058.0
133011.0
132971.0
132935.0
132902.0
132862.0
132811.0
132748.0
132686.0
132640.0
132623.0
132633.0
132655.0
132660.0
132631.0
132561.0
132469.0
132391.0
132363.0
132401.0
132495.0
132753.0
132770.0
132808.0
132939.0
133211.0
134976.0
135142.0
135101.0
134897.0
134588.0
134218.0
133787.0
133268.0
130485.0
130494.0
130677.0
130849.0
130832.0
130552.0
130091.0
129659.0
129486.0
130490.0
129857.0
129441.0
129955.0
135705.0
140571.0
145492.0
149088.0
150185.0
148272.0
143726.0
137727.0
131862.0
127578.0
126201.0
128310.0
130873.0
132822.0
133563.0
133111.0
131968.0
130819.0
130201.0
130304.0
130936.0
131694.0
132184.0
132210.0
131842.0
131333.0
130973.0
130939.0
131223.0
131657.0
132029.0
132181.0
132093.0
131864.0
131650.0
131575.0
131680.0
131904.0
132142.0
132300.0
132342.0
132299.0
132249.0
132259.0
132361.0
132531.0
132716.0
132861.0
132946.0
132983.0
133016.0
133091.0
133230.0
133433.0
133671.0
133917.0
134149.0
134366.0
134579.0
134806.0
135056.0
135322.0
135595.0
135859.0
136109.0
136345.0
136572.0
136788.0
137184.0
137114.0
136896.0
136528.0
136036.0
135455.0
134829.0
134194.0
133586.0
133017.0
132502.0
132040.0
131641.0
131309.0
131055.0
130887.0
130806.0
130804.0
130868.0
130980.0
131117.0
131261.0
131401.0
131534.0
131659.0
131781.0
131904.0
132035.0
132170.0
132451.0
132583.0
132702.0
132802.0
132885.0
132948.0
133000.0
133044.0
133083.0
133117.0
133145.0
133161.0
133170.0
133166.0
133154.0
133136.0
133110.0
133075.0
133026.0
132961.0
132883.0
132801.0
132729.0
132684.0
132664.0
132660.0
132650.0
132610.0
132530.0
132419.0
132309.0
132238.0
132424.0
132547.0
132633.0
132673.0
132702.0
132787.0
132998.0
133370.0
133877.0
134431.0
134915.0
135223.0
135300.0
135155.0
134844.0
134438.0
133976.0
133460.0
132875.0
132220.0
131552.0
130972.0
130597.0
130486.0
130600.0
130799.0
130897.0
130757.0
130376.0
129902.0
129567.0
129562.0
130432.0
130802.0
130748.0
130241.0
129616.0
129510.0
130624.0
133392.0
137682.0
142709.0
147204.0
149824.0
149645.0
146529.0
141233.0
135167.0
129908.0
126672.0
125910.0
127239.0
129659.0
132007.0
133400.0
133518.0
132630.0
131366.0
130386.0
130090.0
130484.0
131254.0
131964.0
132287.0
132141.0
131683.0
131203.0
130954.0
131027.0
131344.0
131708.0
131492.0
131352.0
131393.0
131593.0
131860.0
132082.0
132190.0
132188.0
132142.0
132139.0
132229.0
132412.0
132637.0
132842.0
132976.0
133039.0
133063.0
133106.0
133208.0
133384.0
133615.0
133868.0
134108.0
134328.0
134530.0
134741.0
134974.0
136065.0
136305.0
136521.0
136715.0
136888.0
137026.0
137102.0
137080.0
136926.0
136628.0
136190.0
135635.0
135003.0
134341.0
133688.0
133077.0
132534.0
132072.0
131692.0
131393.0
131172.0
131022.0
130939.0
130911.0
130928.0
130989.0
131076.0
131585.0
131714.0
131833.0
131942.0
132043.0
132372.0
132497.0
132619.0
132731.0
132821.0
132886.0
132927.0
132954.0
132975.0
133000.0
133035.0
133075.0
133114.0
133139.0
133147.0
133135.0
133107.0
133070.0
133031.0
132996.0
132962.0
132928.0
132887.0
132840.0
132794.0
132724.0
132707.0
132691.0
132661.0
132608.0
132533.0
132454.0
132399.0
132388.0
132434.0
132517.0
132610.0
132674.0
132697.0
132705.0
132745.0
132891.0
133186.0
133629.0
134160.0
134675.0
135068.0
135263.0
135244.0
135047.0
134725.0
133843.0
133272.0
132601.0
131870.0
131178.0
130656.0
130408.0
130449.0
130670.0
130883.0
130899.0
130634.0
130163.0
129700.0
129492.0
130930.0
130659.0
130012.0
129483.0
129789.0
131564.0
135027.0
139753.0
144701.0
148503.0
149937.0
148399.0
144161.0
138324.0
132444.0
128001.0
125899.0
126203.0
128206.0
130770.0
132807.0
133663.0
133297.0
132177.0
130988.0
130303.0
130344.0
130954.0
131733.0
132274.0
132351.0
132007.0
131487.0
131090.0
131011.0
131262.0
131684.0
132058.0
132217.0
132120.0
131865.0
131523.0
131633.0
131896.0
132199.0
132421.0
132507.0
132471.0
132380.0
132322.0
132348.0
132461.0
132622.0
132780.0
132899.0
133416.0
133622.0
133843.0
134064.0
134277.0
134492.0
134714.0
134952.0
135198.0
135452.0
135703.0
135950.0
136196.0
136439.0
136677.0
136888.0
137044.0
137110.0
137048.0
136839.0
136483.0
135999.0
135424.0
134794.0
134152.0
133529.0
132949.0
132429.0
130920.0
130839.0
130822.0
130854.0
131151.0
131287.0
131431.0
131574.0
131713.0
131843.0
131963.0
132078.0
132192.0
132315.0
132443.0
132576.0
132703.0
132815.0
132903.0
132968.0
133015.0
133054.0
133094.0
133138.0
133180.0
133210.0
133214.0
133188.0
133135.0
133067.0
132997.0
132940.0
132897.0
132864.0
132830.0
132784.0
132724.0
132661.0
132605.0
132566.0
132540.0
132513.0
132475.0
132304.0
132300.0
132353.0
132455.0
132572.0
132663.0
132699.0
132690.0
132691.0
132769.0
132993.0
133379.0
133887.0
134417.0
134856.0
135113.0
135154.0
135005.0
134720.0
134350.0
133909.0
133380.0
132745.0
132032.0
131326.0
130758.0
130448.0
130433.0
130898.0
130660.0
130183.0
129671.0
129380.0
129488.0
129955.0
130530.0
130855.0
130673.0
130038.0
129396.0
129468.0
130966.0
134229.0
138962.0
144188.0
149657.0
145747.0
139858.0
133554.0
128439.0
125624.0
125379.0
127132.0
129766.0
132103.0
133336.0
133270.0
132277.0
131038.0
130190.0
130062.0
130581.0
131384.0
132040.0
132260.0
132020.0
131527.0
131080.0
130908.0
131072.0
131453.0
131840.0
132053.0
132024.0
131821.0
131595.0
131496.0
131587.0
131836.0
132134.0
132367.0
132466.0
132439.0
132356.0
132440.0
132601.0
132753.0
132863.0
132927.0
133392.0
133627.0
133869.0
134090.0
134286.0
134470.0
134667.0
134893.0
135147.0
135416.0
135682.0
135924.0
136139.0
136330.0
136505.0
136665.0
136799.0
136877.0
136857.0
136708.0
136413.0
135979.0
135434.0
134824.0
133015.0
132510.0
132070.0
131695.0
131388.0
131152.0
130992.0
130904.0
130880.0
130908.0
130973.0
131062.0
131164.0
131578.0
131750.0
131930.0
132100.0
132255.0
132386.0
132495.0
132595.0
132695.0
132800.0
133004.0
133077.0
133117.0
133122.0
133105.0
133083.0
133071.0
133082.0
133109.0
133133.0
133140.0
133112.0
133046.0
132958.0
132874.0
132817.0
132800.0
132811.0
132826.0
132817.0
132763.0
132671.0
132564.0
132485.0
132459.0
132497.0
132573.0
132647.0
132685.0
132680.0
132666.0
132712.0
132882.0
133215.0
133686.0
134212.0
134678.0
134982.0
135072.0
134958.0
134692.0
134339.0
133931.0
133467.0
132918.0
132285.0
131614.0
131015.0
130610.0
130479.0
130592.0
130815.0
130957.0
130860.0
130502.0
130018.0
129643.0
129592.0
129924.0
130474.0
130918.0
130941.0
130454.0
129731.0
129383.0
130151.0
132567.0
141665.0
146453.0
149595.0
150025.0
147418.0
130533.0
126721.0
125417.0
126403.0
128773.0
131340.0
133110.0
133608.0
132972.0
131770.0
130685.0
130195.0
130409.0
131082.0
131799.0
132199.0
132139.0
131731.0
131241.0
130938.0
130957.0
131253.0
131652.0
131951.0
132032.0
131904.0
131682.0
131520.0
131519.0
131688.0
131952.0
132196.0
132341.0
132363.0
132309.0
132257.0
132275.0
132386.0
132568.0
132764.0
132929.0
133038.0
133102.0
133157.0
133236.0
133359.0
133531.0
133738.0
133968.0
134212.0
135309.0
135574.0
135812.0
136027.0
136230.0
136439.0
136657.0
136873.0
137054.0
137152.0
137118.0
136921.0
136558.0
136054.0
135454.0
134810.0
134168.0
133560.0
133005.0
132508.0
132073.0
131700.0
131397.0
131164.0
131005.0
130913.0
130880.0
130893.0
130941.0
131016.0
131117.0
131245.0
131399.0
131574.0
131757.0
132227.0
132332.0
132422.0
132511.0
132608.0
132720.0
132836.0
132951.0
133050.0
133214.0
133237.0
133255.0
133264.0
133261.0
133241.0
133204.0
133156.0
133108.0
133064.0
133030.0
133000.0
132962.0
132905.0
132518.0
132523.0
132542.0
132543.0
132431.0
132340.0
132275.0
132271.0
132340.0
132465.0
132602.0
132707.0
132763.0
132796.0
132863.0
133037.0
133355.0
133803.0
134306.0
134753.0
135046.0
135128.0
135003.0
134728.0
134363.0
133944.0
133467.0
132908.0
132265.0
131588.0
130982.0
130572.0
130430.0
130531.0
130740.0
130866.0
130766.0
130412.0
129947.0
129597.0
129563.0
129888.0
130405.0
129530.0
130550.0
133215.0
137444.0
149939.0
149991.0
147057.0
141830.0
135695.0
130250.0
126764.0
125767.0
133258.0
133509.0
132709.0
131470.0
130457.0
131163.0
131866.0
132198.0
132058.0
131592.0
131085.0
130801.0
130853.0
131171.0
131567.0
131844.0
131900.0
131766.0
131570.0
131457.0
131512.0
131726.0
132004.0
132234.0
132344.0
132331.0
132259.0
132215.0
132260.0
132405.0
132609.0
132808.0
132955.0
133035.0
133072.0
133115.0
133201.0
133350.0
133553.0
133782.0
134015.0
134237.0
134453.0
134677.0
134918.0
135714.0
135971.0
136215.0
136449.0
136676.0
136885.0
137058.0
137159.0
137149.0
136996.0
136689.0
136239.0
135676.0
135044.0
134388.0
133748.0
133155.0
132626.0
132170.0
131788.0
131477.0
131235.0
131060.0
130946.0
130891.0
130892.0
130938.0
131023.0
131137.0
131269.0
131417.0
131569.0
131722.0
131870.0
132010.0
132141.0
132383.0
132499.0
132614.0
132726.0
132834.0
132932.0
133014.0
133080.0
133135.0
133176.0
133209.0
133233.0
133249.0
133252.0
133241.0
133216.0
133180.0
133139.0
133061.0
133025.0
132987.0
132942.0
132892.0
132839.0
132791.0
132753.0
132725.0
132707.0
132690.0
132662.0
132617.0
132559.0
132499.0
132460.0
132511.0
132489.0
132433.0
132360.0
132305.0
132305.0
132373.0
132493.0
132629.0
132735.0
132789.0
132812.0
133275.0
133696.0
134197.0
134672.0
135012.0
135148.0
135075.0
133110.0
132485.0
131797.0
131143.0
130419.0
130460.0
130664.0
130850.0
130841.0
130568.0
130116.0
129695.0
129529.0
129725.0
130184.0
130631.0
130755.0
130419.0
129811.0
129466.0
130089.0
132242.0
136023.0
150042.0
147974.0
143371.0
137440.0
131751.0
127697.0
126029.0
126658.0
128772.0
131224.0
132991.0
133545.0
132957.0
131758.0
130631.0
130083.0
130261.0
130944.0
131715.0
132190.0
132194.0
131819.0
131319.0
130980.0
130958.0
131222.0
131608.0
131906.0
131618.0
131442.0
131435.0
131611.0
131891.0
132154.0
132306.0
132324.0
132258.0
132194.0
132212.0
132335.0
132534.0
132746.0
132909.0
133000.0
133032.0
133052.0
133109.0
133231.0
133414.0
133635.0
133864.0
134085.0
134295.0
134511.0
134747.0
135008.0
135828.0
136061.0
136268.0
136456.0
136633.0
136794.0
136918.0
136971.0
136914.0
136719.0
136378.0
135909.0
135344.0
134727.0
134107.0
133516.0
132979.0
132505.0
132094.0
131745.0
131455.0
131227.0
131063.0
130964.0
130928.0
130942.0
130994.0
131069.0
131159.0
131260.0
131374.0
131501.0
131645.0
131799.0
131955.0
132102.0
132237.0
132353.0
132461.0
132569.0
132684.0
132808.0
132937.0
133058.0
133157.0
133223.0
133254.0
133231.0
133224.0
133222.0
133222.0
133211.0
133182.0
133136.0
133074.0
133007.0
132949.0
132902.0
132870.0
132846.0
132821.0
132788.0
132746.0
132701.0
132665.0
132648.0
132652.0
132674.0
132702.0
132718.0
132709.0
132672.0
132613.0
132555.0
132508.0
132486.0
132480.0
132464.0
132424.0
132375.0
132339.0
132341.0
132396.0
132495.0
132609.0
132700.0
132749.0
132765.0
132800.0
132918.0
133173.0
133574.0
134075.0
134575.0
134972.0
135183.0
135183.0
134999.0
134683.0
134283.0
133816.0
133269.0
132639.0
130585.0
130596.0
130766.0
130923.0
130900.0
130623.0
130166.0
129728.0
129534.0
129698.0
130137.0
130591.0
130748.0
130445.0
129834.0
129411.0
129867.0
131794.0
135351.0
140081.0
144927.0
148557.0
149807.0
148137.0
143871.0
138123.0
132423.0
128194.0
126268.0
126658.0
128637.0
131083.0
132952.0
133650.0
133174.0
132012.0
130842.0
130209.0
130306.0
130956.0
131752.0
132292.0
132360.0
132006.0
131475.0
131062.0
131918.0
132078.0
132009.0
131799.0
131597.0
131529.0
131635.0
131871.0
132130.0
132314.0
132379.0
132346.0
132282.0
132257.0
132308.0
132429.0
132580.0
132716.0
132812.0
132874.0
132930.0
133016.0
133147.0
133327.0
133535.0
133755.0
133971.0
134652.0
134910.0
135180.0
135448.0
135707.0
136628.0
136828.0
136986.0
137067.0
137033.0
136859.0
136540.0
136090.0
135541.0
134929.0
134299.0
133689.0
133124.0
132618.0
132177.0
131800.0
131484.0
131234.0
131048.0
130932.0
130883.0
130898.0
131388.0
131504.0
131631.0
131772.0
131930.0
132094.0
132258.0
132405.0
132529.0
132628.0
132705.0
132772.0
132837.0
132909.0
133055.0
133116.0
133161.0
133188.0
133193.0
133188.0
133177.0
133163.0
133147.0
133062.0
133019.0
132973.0
132928.0
132886.0
132848.0
132816.0
132789.0
132768.0
132753.0
132746.0
132742.0
132741.0
132727.0
132695.0
132647.0
132590.0
132542.0
132519.0
132527.0
132557.0
132586.0
132589.0
132548.0
132471.0
132385.0
132330.0
132339.0
132418.0
132542.0
132670.0
132755.0
132784.0
132782.0
132810.0
132937.0
133203.0
133600.0
134063.0
134494.0
134808.0
134953.0
134928.0
134764.0
134491.0
134120.0
133637.0
133030.0
131593.0
130977.0
130588.0
130483.0
130594.0
130767.0
130811.0
129987.0
130491.0
130758.0
130560.0
129951.0
129355.0
129467.0
130975.0
134216.0
138913.0
144135.0
148525.0
134462.0
129342.0
126406.0
125962.0
132140.0
133315.0
133248.0
132284.0
131071.0
130225.0
130068.0
130535.0
131277.0
131873.0
132049.0
131785.0
131282.0
130839.0
130684.0
130872.0
131284.0
131705.0
131951.0
131951.0
131766.0
131548.0
131443.0
131522.0
132258.0
132344.0
132301.0
132197.0
132112.0
132111.0
132202.0
132357.0
132526.0
132667.0
132773.0
132862.0
132963.0
133102.0
133282.0
133496.0
133728.0
133964.0
134205.0
134457.0
134722.0
135001.0
135279.0
135541.0
135777.0
135986.0
136179.0
136370.0
136573.0
136774.0
136953.0
137069.0
137080.0
136953.0
136680.0
136274.0
135762.0
135181.0
134567.0
133955.0
133364.0
132818.0
132325.0
131897.0
131543.0
131266.0
131068.0
130943.0
130881.0
130869.0
130895.0
130950.0
131029.0
131127.0
131245.0
131377.0
131519.0
131670.0
131820.0
131966.0
132104.0
132234.0
132354.0
132464.0
132565.0
132657.0
132740.0
132815.0
132883.0
132947.0
133001.0
133046.0
133075.0
133083.0
133072.0
133046.0
133011.0
132973.0
132895.0
132850.0
132794.0
132724.0
132644.0
132475.0
132464.0
132459.0
132439.0
132388.0
132307.0
132219.0
132156.0
132152.0
132220.0
132341.0
132478.0
132586.0
132642.0
132660.0
132696.0
132818.0
133082.0
133491.0
133993.0
134493.0
135124.0
134979.0
134725.0
134394.0
133994.0
133502.0
131590.0
131079.0
130805.0
130780.0
130910.0
131026.0
130968.0
130667.0
130205.0
129777.0
129602.0
129777.0
130212.0
130647.0
130778.0
132125.0
135794.0
140587.0
145431.0
143729.0
137737.0
131791.0
127331.0
125215.0
125487.0
127445.0
129983.0
132047.0
132997.0
132775.0
131809.0
130730.0
130073.0
130060.0
130567.0
131249.0
131751.0
131879.0
131667.0
131322.0
131089.0
132287.0
132199.0
131991.0
131812.0
131777.0
131916.0
132602.0
132649.0
132604.0
132539.0
132524.0
132592.0
132727.0
132876.0
132988.0
133037.0
133039.0
133033.0
133065.0
133162.0
133329.0
133544.0
133782.0
135082.0
135386.0
135684.0
135961.0
136435.0
136647.0
136854.0
137050.0
137209.0
137290.0
137252.0
137062.0
136716.0
136231.0
135640.0
134990.0
134324.0
133673.0
133060.0
132498.0
131998.0
131569.0
131225.0
130972.0
130813.0
130733.0
130766.0
130818.0
130877.0
130942.0
131024.0
131139.0
131298.0
131500.0
131736.0
131988.0
132228.0
132441.0
132617.0
132760.0
132876.0
132977.0
133073.0
133163.0
133248.0
133327.0
133507.0
133545.0
133567.0
133566.0
133533.0
133467.0
133080.0
133018.0
132976.0
132944.0
132803.0
132740.0
132689.0
132660.0
132652.0
132646.0
132622.0
132561.0
132466.0
132250.0
132302.0
132414.0
132543.0
132638.0
132668.0
132642.0
132618.0
132672.0
132876.0
133248.0
133741.0
134257.0
134679.0
134917.0
134942.0
134787.0
134522.0
134203.0
133847.0
133427.0
132904.0
132275.0
131602.0
131008.0
130621.0
130511.0
130634.0
130841.0
130947.0
130816.0
130455.0
130020.0
129734.0
129770.0
130129.0
130617.0
130926.0
130828.0
130355.0
129888.0
130079.0
131582.0
134731.0
139276.0
144334.0
148607.0
150802.0
150116.0
146561.0
141012.0
126840.0
126279.0
127666.0
129976.0
132088.0
133213.0
133126.0
132149.0
130916.0
130037.0
129838.0
130272.0
131004.0
131627.0
131863.0
131674.0
131244.0
130848.0
130696.0
130840.0
131165.0
131474.0
131596.0
131482.0
131207.0
130925.0
130784.0
130848.0
131081.0
131375.0
131619.0
131754.0
131796.0
131813.0
131890.0
132070.0
132339.0
132636.0
132888.0
133136.0
133163.0
133247.0
133405.0
133627.0
133881.0
134139.0
134391.0
134639.0
134899.0
135182.0
135484.0
135789.0
136081.0
136343.0
136573.0
137162.0
137325.0
137431.0
137429.0
137273.0
136943.0
136445.0
135818.0
135118.0
134411.0
133744.0
133150.0
132633.0
132178.0
131766.0
131389.0
131045.0
130753.0
130533.0
130404.0
130366.0
130402.0
130487.0
130589.0
130690.0
130785.0
130878.0
130990.0
131131.0
131307.0
131509.0
131720.0
131924.0
132108.0
132270.0
132418.0
132561.0
132709.0
132861.0
133371.0
133455.0
133528.0
133598.0
133662.0
133712.0
133736.0
133721.0
133663.0
133560.0
133422.0
133262.0
133094.0
132925.0
132763.0
132617.0
132494.0
132403.0
132344.0
132307.0
132277.0
132238.0
132186.0
132127.0
132088.0
132098.0
132185.0
132349.0
132571.0
132817.0
133055.0
133271.0
133495.0
133767.0
134134.0
134607.0
135147.0
135676.0
136098.0
136334.0
136355.0
136176.0
135848.0
135415.0
134893.0
134274.0
133547.0
132742.0
131940.0
131266.0
130829.0
130665.0
130701.0
129839.0
129290.0
128957.0
128993.0
129356.0
129809.0
130028.0
129795.0
129200.0
130709.0
134186.0
139055.0
144328.0
148619.0
150622.0
149586.0
145642.0
139794.0
133595.0
128621.0
125925.0
125741.0
127473.0
132223.0
133336.0
133198.0
132204.0
131026.0
130277.0
130246.0
130836.0
131666.0
132312.0
132506.0
132238.0
131722.0
131248.0
131030.0
131113.0
131371.0
131611.0
131674.0
131531.0
131274.0
131063.0
131234.0
131591.0
131977.0
132266.0
132403.0
132409.0
132368.0
132376.0
132481.0
132676.0
132900.0
133088.0
133196.0
133233.0
133243.0
133288.0
133412.0
133620.0
133883.0
134154.0
134392.0
134578.0
134723.0
134859.0
135021.0
135233.0
135498.0
135805.0
136131.0
136450.0
136743.0
137347.0
137416.0
137381.0
137217.0
136905.0
136439.0
135833.0
135117.0
134342.0
133562.0
132834.0
132194.0
131659.0
131226.0
130872.0
130576.0
130321.0
130102.0
129932.0
129829.0
129806.0
129871.0
130010.0
130199.0
130410.0
130623.0
130837.0
131062.0
131325.0
131647.0
132041.0
132492.0
132968.0
133420.0
133803.0
134083.0
134251.0
134318.0
134186.0
134182.0
134177.0
134166.0
134140.0
134095.0
134036.0
133965.0
133885.0
133799.0
133705.0
133601.0
133487.0
133359.0
133213.0
133048.0
132871.0
132697.0
132539.0
132403.0
132290.0
132187.0
132080.0
131964.0
131719.0
131753.0
131854.0
131992.0
132122.0
132206.0
132235.0
132245.0
132304.0
132482.0
132814.0
133281.0
133806.0
134278.0
134601.0
134716.0
134632.0
134384.0
134026.0
133579.0
133043.0
132408.0
131697.0
130990.0
130408.0
130069.0
130018.0
130189.0
130319.0
129892.0
129402.0
129102.0
129177.0
129618.0
130198.0
130566.0
130449.0
129869.0
129236.0
129269.0
130711.0
133977.0
138848.0
144404.0
149245.0
151946.0
130202.0
126801.0
125987.0
127301.0
129684.0
131940.0
133201.0
133194.0
132236.0
130986.0
130094.0
129919.0
130413.0
131223.0
131897.0
132133.0
131880.0
131342.0
130829.0
130591.0
130707.0
131064.0
131446.0
131656.0
131614.0
131386.0
131129.0
130999.0
131077.0
131335.0
131666.0
131941.0
132084.0
132092.0
132028.0
131981.0
132007.0
132120.0
132281.0
132437.0
132555.0
132630.0
132695.0
132791.0
132943.0
133160.0
133420.0
133695.0
133967.0
134235.0
134512.0
134814.0
135140.0
135481.0
135812.0
136111.0
136366.0
136581.0
136776.0
136965.0
137152.0
137316.0
137416.0
137401.0
137232.0
136895.0
136408.0
135809.0
135153.0
134491.0
133862.0
133286.0
132770.0
132310.0
131902.0
131547.0
131254.0
131033.0
130888.0
130820.0
130820.0
130868.0
130945.0
131033.0
131126.0
131224.0
131332.0
131456.0
131595.0
131750.0
131905.0
132051.0
132174.0
132275.0
132359.0
132440.0
132532.0
132642.0
132770.0
133096.0
133075.0
133030.0
132987.0
132966.0
132977.0
133009.0
133044.0
133056.0
133034.0
132981.0
132915.0
132857.0
132780.0
132740.0
132666.0
132572.0
132485.0
132436.0
132448.0
132516.0
132608.0
132686.0
132723.0
132730.0
132756.0
132864.0
133110.0
133496.0
133969.0
134432.0
134780.0
134940.0
134899.0
134689.0
134364.0
133967.0
133493.0
132926.0
132259.0
131537.0
130865.0
130378.0
130173.0
130244.0
130474.0
130657.0
130613.0
130277.0
129754.0
129285.0
129121.0
129375.0
129931.0
130471.0
130636.0
130246.0
129491.0
128950.0
129412.0
131541.0
135512.0
140798.0
146224.0
150296.0
151729.0
149922.0
145227.0
138858.0
132492.0
127689.0
125381.0
125607.0
127613.0
130215.0
132288.0
133173.0
132835.0
131750.0
130603.0
129954.0
130014.0
130618.0
131375.0
131887.0
131952.0
131620.0
131133.0
130769.0
130705.0
130940.0
131324.0
131655.0
131797.0
131731.0
131554.0
131411.0
131414.0
131583.0
131853.0
132112.0
132271.0
132303.0
132250.0
132191.0
132196.0
132291.0
132451.0
132618.0
132743.0
132809.0
132839.0
132878.0
132972.0
133143.0
133384.0
133663.0
133951.0
134225.0
135633.0
135928.0
136196.0
136432.0
136997.0
137145.0
137245.0
137254.0
137139.0
136870.0
136453.0
135911.0
135286.0
134624.0
133968.0
133353.0
132798.0
132311.0
131892.0
131537.0
131246.0
131023.0
130869.0
130861.0
130960.0
131079.0
131213.0
131356.0
131989.0
132134.0
132266.0
132382.0
132493.0
132601.0
132712.0
132823.0
132927.0
133013.0
133071.0
133099.0
133102.0
133095.0
133093.0
133104.0
133130.0
133157.0
133168.0
133147.0
133090.0
133009.0
132929.0
132869.0
132839.0
132821.0
132796.0
132738.0
132636.0
132508.0
132390.0
132321.0
132327.0
132398.0
132504.0
132596.0
132647.0
132668.0
132710.0
133549.0
134068.0
134570.0
134941.0
135105.0
133615.0
133069.0
132426.0
131719.0
130295.0
130334.0
130538.0
130716.0
130687.0
130379.0
129890.0
129448.0
129296.0
129543.0
130076.0
130586.0
130725.0
130328.0
129589.0
129089.0
129608.0
131785.0
135773.0
141021.0
146344.0
149566.0
144802.0
138475.0
132266.0
127702.0
125654.0
126100.0
128227.0
130829.0
132795.0
133513.0
133007.0
131801.0
130610.0
129989.0
130126.0
130816.0
131637.0
132177.0
132235.0
131874.0
131352.0
130960.0
130871.0
131079.0
131428.0
131715.0
131809.0
131702.0
131503.0
131362.0
131379.0
131570.0
131852.0
132107.0
132244.0
132247.0
132169.0
132102.0
132120.0
132245.0
132446.0
132654.0
132808.0
132884.0
132908.0
132930.0
133004.0
133163.0
133397.0
134245.0
134501.0
134752.0
135010.0
135289.0
135582.0
135883.0
136178.0
136456.0
136717.0
136959.0
137175.0
137347.0
137444.0
137428.0
137265.0
136942.0
136467.0
135873.0
135200.0
134500.0
133812.0
133173.0
132597.0
132098.0
131680.0
131346.0
131097.0
130929.0
130837.0
130806.0
130824.0
130873.0
130942.0
131025.0
131119.0
131229.0
131355.0
131496.0
131645.0
131797.0
131944.0
132086.0
132222.0
132357.0
132497.0
132638.0
133014.0
133099.0
133160.0
133202.0
133228.0
133242.0
133247.0
133240.0
133217.0
133181.0
133135.0
133079.0
133019.0
132959.0
132896.0
132830.0
132758.0
132686.0
132620.0
132579.0
132560.0
132560.0
132565.0
132550.0
132505.0
132435.0
132364.0
132329.0
132354.0
132446.0
132581.0
132710.0
132787.0
132795.0
132762.0
132758.0
132865.0
133145.0
133594.0
134138.0
134655.0
135015.0
135138.0
135016.0
134705.0
134292.0
133849.0
133390.0
132893.0
132325.0
131697.0
131080.0
130593.0
130341.0
130352.0
130540.0
130730.0
130742.0
130490.0
130041.0
129597.0
129391.0
129550.0
129997.0
130461.0
130621.0
130301.0
129658.0
129219.0
129717.0
131783.0
135600.0
140688.0
145933.0
149907.0
151355.0
149678.0
145189.0
139050.0
132885.0
128224.0
125984.0
126222.0
128194.0
130735.0
132730.0
133524.0
133087.0
130695.0
131518.0
132098.0
132204.0
130890.0
130728.0
130870.0
131183.0
131476.0
131608.0
131556.0
131406.0
131293.0
131322.0
131788.0
132049.0
132208.0
132244.0
132202.0
132160.0
132187.0
132302.0
132476.0
132816.0
132825.0
132839.0
132909.0
133056.0
133273.0
133531.0
133801.0
134069.0
134335.0
134614.0
134913.0
135231.0
135552.0
135855.0
136127.0
136371.0
136600.0
136827.0
137055.0
137265.0
137421.0
137469.0
137365.0
137084.0
136054.0
135395.0
134703.0
134026.0
133394.0
132820.0
132306.0
131858.0
130770.0
130685.0
130669.0
130710.0
130799.0
130928.0
131088.0
131270.0
131464.0
131656.0
131837.0
131994.0
132127.0
132240.0
132345.0
132453.0
132573.0
132976.0
133089.0
133170.0
133219.0
133238.0
133238.0
133229.0
133219.0
133213.0
133209.0
133207.0
133199.0
133183.0
133155.0
133113.0
133059.0
133000.0
132936.0
132880.0
132836.0
132747.0
132708.0
132654.0
132584.0
132516.0
132472.0
132462.0
132484.0
132519.0
132539.0
132515.0
132441.0
132334.0
132228.0
132169.0
132189.0
132287.0
132430.0
132571.0
132667.0
132710.0
132831.0
133045.0
133417.0
133913.0
134441.0
134914.0
134548.0
134102.0
133622.0
133104.0
132533.0
131910.0
131289.0
130772.0
130464.0
130412.0
130563.0
130760.0
130818.0
130613.0
130165.0
129649.0
129314.0
129351.0
129769.0
130352.0
130757.0
130697.0
130164.0
129530.0
129474.0
130730.0
133733.0
138314.0
143627.0
148334.0
151043.0
150814.0
147539.0
142021.0
127366.0
129715.0
131967.0
133245.0
131002.0
130057.0
129838.0
130327.0
131188.0
131963.0
132315.0
132160.0
131665.0
131128.0
130812.0
130825.0
131097.0
131439.0
131698.0
131560.0
131379.0
131293.0
131372.0
131596.0
132092.0
132195.0
132183.0
132120.0
132082.0
132123.0
132248.0
132416.0
132569.0
132754.0
132809.0
132924.0
133112.0
133358.0
133632.0
133911.0
134179.0
134439.0
134704.0
134983.0
135276.0
135577.0
136408.0
136646.0
136865.0
137059.0
137213.0
137300.0
137287.0
137141.0
136851.0
136419.0
135865.0
135227.0
134549.0
133875.0
133245.0
132687.0
132211.0
131819.0
131502.0
131249.0
131054.0
130913.0
130824.0
130791.0
130813.0
130886.0
130999.0
131137.0
131288.0
131442.0
131591.0
131737.0
131883.0
132030.0
132178.0
132325.0
132465.0
132589.0
132695.0
132783.0
132857.0
132924.0
132989.0
133054.0
133119.0
133174.0
133215.0
133235.0
133235.0
133220.0
133195.0
133173.0
133162.0
133161.0
133170.0
133180.0
133182.0
133166.0
133126.0
133072.0
133008.0
132944.0
132892.0
132857.0
132840.0
132835.0
132833.0
132828.0
132814.0
132793.0
132773.0
132754.0
132742.0
132691.0
132648.0
132596.0
132551.0
132529.0
132532.0
132552.0
132567.0
132554.0
132500.0
132416.0
132331.0
132287.0
132313.0
132413.0
132559.0
132701.0
132796.0
132834.0
132847.0
132905.0
133074.0
133394.0
133837.0
134318.0
134726.0
134964.0
134987.0
134813.0
134496.0
134100.0
133656.0
133154.0
132579.0
131940.0
131302.0
130776.0
130469.0
130424.0
130580.0
130777.0
130830.0
130630.0
130207.0
129739.0
129467.0
129551.0
129968.0
130480.0
130760.0
130567.0
129962.0
129377.0
129517.0
131073.0
134380.0
139149.0
144428.0
148845.0
151066.0
150285.0
146562.0
140842.0
134652.0
129569.0
126689.0
126291.0
127831.0
130226.0
132335.0
133380.0
133186.0
132127.0
130877.0
130058.0
129979.0
130552.0
132325.0
132083.0
131569.0
131083.0
130864.0
131864.0
131693.0
131506.0
131434.0
132067.0
132281.0
132366.0
132335.0
132255.0
132204.0
132231.0
132336.0
132479.0
132609.0
132691.0
132729.0
132754.0
133098.0
133326.0
133576.0
133830.0
134079.0
134330.0
134593.0
134873.0
135166.0
135457.0
135735.0
135992.0
136231.0
136463.0
136689.0
136908.0
137100.0
137230.0
137257.0
137150.0
136893.0
136492.0
135971.0
135368.0
134726.0
134080.0
133464.0
132899.0
132395.0
131959.0
131594.0
131302.0
131081.0
130934.0
130854.0
130839.0
130880.0
130966.0
131085.0
131225.0
131374.0
131517.0
131651.0
131772.0
131885.0
131995.0
132110.0
132514.0
132649.0
132767.0
132864.0
132939.0
132996.0
133046.0
133095.0
133141.0
133183.0
133214.0
133224.0
133215.0
133186.0
133150.0
133118.0
133098.0
133094.0
133099.0
133106.0
133099.0
133074.0
133030.0
132975.0
132835.0
132818.0
132813.0
132811.0
132801.0
132784.0
132760.0
132733.0
132715.0
132706.0
132705.0
132709.0
132641.0
132616.0
132611.0
132631.0
132667.0
132620.0
132552.0
132509.0
132520.0
132588.0
132688.0
132784.0
132837.0
132843.0
133016.0
133311.0
133732.0
134205.0
134627.0
134907.0
135000.0
134915.0
134696.0
134389.0
134010.0
133539.0
132953.0
132261.0
131535.0
130902.0
130494.0
130379.0
130509.0
130724.0
130821.0
130653.0
130220.0
129692.0
129322.0
129313.0
129685.0
130237.0
130614.0
130527.0
129943.0
129228.0
129069.0
130227.0
133163.0
137755.0
143168.0
148066.0
151019.0
151036.0
147953.0
142538.0
136243.0
130714.0
127211.0
126222.0
127372.0
129659.0
131903.0
133213.0
133270.0
132347.0
131078.0
130118.0
129857.0
130285.0
131072.0
131779.0
132083.0
131910.0
131431.0
130944.0
130703.0
130798.0
131140.0
131530.0
131780.0
131802.0
131642.0
131441.0
131340.0
131414.0
131640.0
131918.0
132140.0
132238.0
132226.0
132168.0
132147.0
132207.0
132343.0
132506.0
132635.0
132694.0
132693.0
132682.0
132717.0
132837.0
133588.0
133840.0
134061.0
134269.0
134492.0
134755.0
135061.0
135390.0
135712.0
135999.0
136243.0
136450.0
136642.0
136833.0
137025.0
137191.0
137285.0
137254.0
136710.0
136205.0
135598.0
134940.0
134285.0
133665.0
133099.0
132586.0
132126.0
131712.0
131355.0
131065.0
130723.0
130791.0
130878.0
130972.0
131069.0
131177.0
131307.0
131466.0
131649.0
131844.0
132035.0
132204.0
132343.0
132452.0
132627.0
132715.0
132813.0
132918.0
133020.0
133109.0
133180.0
133229.0
133260.0
133274.0
133277.0
133268.0
133249.0
133219.0
133180.0
133137.0
133100.0
133074.0
133058.0
133052.0
133042.0
133021.0
132986.0
132937.0
132883.0
132835.0
132801.0
132781.0
132764.0
132691.0
132626.0
132561.0
132513.0
132498.0
132511.0
132538.0
132548.0
132523.0
132355.0
132380.0
132480.0
132627.0
132768.0
132849.0
132845.0
132783.0
132729.0
132773.0
132983.0
133361.0
133847.0
134335.0
134711.0
134903.0
134893.0
134711.0
134407.0
134012.0
133526.0
132942.0
132274.0
131586.0
130992.0
130609.0
130498.0
130615.0
130813.0
130899.0
130739.0
130332.0
130676.0
130586.0
130035.0
129279.0
130477.0
133419.0
137971.0
143317.0
148130.0
151001.0
150939.0
147774.0
142253.0
135820.0
130118.0
126435.0
125304.0
126389.0
128717.0
131108.0
132636.0
132928.0
132195.0
131035.0
130095.0
129786.0
130142.0
130884.0
131596.0
131961.0
131880.0
131499.0
131084.0
130874.0
130969.0
131297.0
131678.0
131936.0
131985.0
131866.0
131703.0
131635.0
131726.0
131962.0
132243.0
132461.0
132544.0
132502.0
132397.0
132316.0
132317.0
132414.0
132564.0
132710.0
132808.0
132849.0
132862.0
132897.0
132994.0
133171.0
133415.0
133696.0
133982.0
134257.0
134521.0
134786.0
135059.0
135345.0
136361.0
136550.0
136726.0
136897.0
137058.0
137162.0
136947.0
136576.0
136064.0
135452.0
134785.0
134116.0
133486.0
132915.0
131596.0
131271.0
131003.0
130798.0
130666.0
130612.0
130628.0
130702.0
130819.0
130958.0
131106.0
131255.0
131402.0
131551.0
131704.0
131866.0
132034.0
132204.0
132372.0
132532.0
132681.0
132818.0
132941.0
133049.0
133141.0
133216.0
133270.0
133302.0
133311.0
133234.0
133190.0
133143.0
133097.0
133048.0
132999.0
132953.0
132912.0
132881.0
132866.0
132861.0
132859.0
132852.0
132826.0
132777.0
132705.0
132626.0
132563.0
132532.0
132535.0
132557.0
132571.0
132551.0
132484.0
132383.0
132283.0
132229.0
132248.0
132345.0
132489.0
132628.0
132719.0
132754.0
132764.0
132815.0
132977.0
133286.0
133719.0
134197.0
134615.0
134881.0
134950.0
134838.0
134592.0
134263.0
133869.0
133398.0
132826.0
132165.0
131484.0
130905.0
130548.0
130466.0
130610.0
130819.0
130903.0
130736.0
130334.0
129862.0
129554.0
129589.0
129959.0
130451.0
130740.0
130583.0
130004.0
129405.0
129463.0
130880.0
134025.0
138664.0
143903.0
148396.0
150797.0
150242.0
146711.0
141079.0
134838.0
129587.0
126486.0
125903.0
127358.0
129804.0
132075.0
132350.0
131085.0
130164.0
129947.0
130396.0
131177.0
131856.0
132128.0
131935.0
131458.0
130987.0
130762.0
130863.0
131196.0
131564.0
131785.0
131786.0
131617.0
131422.0
131336.0
131436.0
131688.0
131994.0
132236.0
132346.0
132325.0
132237.0
132168.0
132447.0
132620.0
132762.0
132860.0
132933.0
133019.0
133142.0
133317.0
133531.0
133770.0
134015.0
134261.0
134514.0
134781.0
135069.0
135368.0
135666.0
135953.0
136218.0
136464.0
136701.0
136929.0
137145.0
137327.0
137442.0
137452.0
137320.0
137029.0
136585.0
136012.0
135347.0
134640.0
132686.0
132173.0
131745.0
131397.0
131127.0
130931.0
130807.0
130746.0
130743.0
130784.0
130858.0
130951.0
131053.0
131168.0
131294.0
131434.0
131588.0
131922.0
132085.0
132234.0
132367.0
132483.0
132590.0
132687.0
132778.0
132859.0
132931.0
132991.0
133041.0
133084.0
133123.0
133160.0
133190.0
133208.0
133205.0
133180.0
133135.0
133080.0
133030.0
132993.0
132973.0
132965.0
132959.0
132941.0
132912.0
132869.0
132823.0
132783.0
132760.0
132753.0
132750.0
132744.0
132728.0
132704.0
132681.0
132667.0
132660.0
132652.0
132627.0
132573.0
132497.0
132416.0
132363.0
132362.0
132423.0
132528.0
132640.0
132720.0
132759.0
132780.0
132840.0
132999.0
133298.0
133716.0
134185.0
134605.0
134885.0
134976.0
134883.0
134653.0
134333.0
133948.0
133484.0
132917.0
132248.0
131539.0
130910.0
130487.0
130347.0
130454.0
130665.0
130787.0
130669.0
130299.0
129817.0
129458.0
130497.0
129989.0
129381.0
129318.0
130513.0
133410.0
137878.0
143118.0
147833.0
150646.0
150595.0
147525.0
142184.0
135997.0
130569.0
127147.0
126209.0
127385.0
129685.0
131942.0
133266.0
133336.0
132419.0
131151.0
130375.0
131191.0
131930.0
132260.0
132094.0
131602.0
131077.0
130785.0
130833.0
131137.0
131507.0
131748.0
131767.0
131605.0
131391.0
131276.0
131338.0
131556.0
131835.0
132059.0
132164.0
132152.0
132086.0
132053.0
132109.0
132257.0
132454.0
132638.0
132763.0
132829.0
132865.0
132922.0
133860.0
134054.0
134248.0
134469.0
135055.0
135399.0
135737.0
136044.0
136306.0
136525.0
136720.0
136904.0
137077.0
137215.0
137282.0
137229.0
137021.0
136649.0
136131.0
135502.0
134814.0
134121.0
133467.0
132874.0
132356.0
131909.0
131535.0
131231.0
130999.0
130842.0
130760.0
130752.0
130798.0
130885.0
130994.0
131113.0
131239.0
131369.0
131508.0
131660.0
131821.0
131985.0
132143.0
132289.0
132419.0
132532.0
132632.0
132718.0
132797.0
132867.0
132930.0
132984.0
133031.0
133071.0
133109.0
133143.0
133174.0
133198.0
133212.0
133212.0
133197.0
133164.0
132982.0
132908.0
132840.0
132784.0
132744.0
132716.0
132696.0
132641.0
132590.0
132526.0
132463.0
132420.0
132468.0
132495.0
132487.0
132437.0
132361.0
132296.0
132284.0
132346.0
132474.0
132631.0
132765.0
132836.0
132847.0
132841.0
132895.0
133078.0
133420.0
133884.0
134378.0
134791.0
135031.0
135064.0
134911.0
134627.0
134261.0
133832.0
133321.0
132711.0
132025.0
131344.0
130796.0
130495.0
130473.0
130650.0
130851.0
130884.0
130642.0
130178.0
129687.0
129972.0
130502.0
130777.0
130578.0
129991.0
129477.0
129745.0
131461.0
134900.0
139698.0
139694.0
133609.0
128821.0
126278.0
128038.0
130485.0
132500.0
133379.0
133028.0
131888.0
130648.0
129900.0
129900.0
130515.0
131349.0
131973.0
132139.0
131864.0
131379.0
130982.0
130875.0
131085.0
131473.0
131826.0
131983.0
131906.0
131687.0
131480.0
131412.0
131527.0
131765.0
132015.0
132169.0
132196.0
132130.0
132057.0
132062.0
132180.0
132387.0
132619.0
132808.0
132919.0
133042.0
133167.0
133361.0
133597.0
133842.0
134071.0
134280.0
134486.0
134707.0
134956.0
135227.0
135510.0
135782.0
136035.0
136268.0
136491.0
136706.0
136910.0
137081.0
137183.0
137175.0
137026.0
136728.0
136291.0
135749.0
135132.0
132129.0
131691.0
131337.0
131072.0
130892.0
130790.0
130754.0
130772.0
130833.0
130926.0
131046.0
131180.0
131320.0
131458.0
131584.0
131703.0
131817.0
131939.0
132074.0
132223.0
132375.0
132516.0
132628.0
132707.0
132756.0
132796.0
132846.0
132925.0
133033.0
133153.0
133253.0
133301.0
133025.0
132865.0
132732.0
132657.0
132640.0
132666.0
132704.0
132727.0
132714.0
132662.0
132588.0
132520.0
132480.0
132483.0
132517.0
132555.0
132565.0
132521.0
132417.0
132277.0
132145.0
132068.0
132076.0
132168.0
132547.0
132596.0
132632.0
132724.0
132940.0
133312.0
133813.0
134362.0
134844.0
135164.0
135275.0
135184.0
134939.0
134592.0
134166.0
133650.0
133030.0
132319.0
131597.0
130985.0
130609.0
130520.0
130658.0
130858.0
130917.0
130705.0
130238.0
129696.0
129338.0
129361.0
129770.0
130341.0
130720.0
130617.0
130023.0
129323.0
129215.0
130445.0
133452.0
138059.0
143394.0
148098.0
150759.0
150436.0
147033.0
141391.0
135010.0
129541.0
126218.0
125476.0
126880.0
129376.0
131765.0
133154.0
133241.0
132321.0
131045.0
130079.0
129816.0
130243.0
131039.0
131762.0
132089.0
131946.0
131499.0
131033.0
130791.0
130866.0
131173.0
131528.0
131752.0
131765.0
131616.0
131437.0
131360.0
131450.0
131680.0
132253.0
132231.0
132163.0
132123.0
132160.0
132276.0
132430.0
132566.0
132650.0
132685.0
132701.0
132745.0
132847.0
133019.0
133243.0
133494.0
133755.0
134017.0
134285.0
134563.0
134856.0
135707.0
135954.0
136194.0
136437.0
136697.0
137379.0
137438.0
137342.0
137076.0
136655.0
133545.0
132972.0
132455.0
132000.0
131041.0
130875.0
130785.0
130768.0
130804.0
130883.0
130982.0
131094.0
131210.0
131330.0
131458.0
131596.0
131744.0
131894.0
132040.0
132173.0
132292.0
132398.0
132499.0
132601.0
132709.0
132820.0
132923.0
133002.0
133052.0
133072.0
133069.0
133058.0
133052.0
133056.0
133069.0
133077.0
132929.0
132835.0
132750.0
132686.0
132645.0
132614.0
132572.0
132504.0
132416.0
132331.0
132283.0
132295.0
132368.0
132475.0
132570.0
132619.0
132621.0
132618.0
132681.0
132882.0
133252.0
133759.0
134311.0
134787.0
135083.0
135153.0
135013.0
134722.0
134341.0
133900.0
133389.0
132789.0
132105.0
131409.0
130823.0
130471.0
130416.0
130603.0
130864.0
130995.0
130851.0
130443.0
129938.0
129589.0
129599.0
129977.0
130514.0
130862.0
130735.0
130121.0
129397.0
129249.0
130418.0
133334.0
137829.0
143044.0
147637.0
150220.0
140925.0
134659.0
129324.0
126131.0
125497.0
126975.0
129514.0
131923.0
133320.0
133417.0
132515.0
131266.0
130328.0
130081.0
130506.0
131275.0
131951.0
132225.0
132035.0
131558.0
131087.0
130861.0
130960.0
131285.0
131638.0
131835.0
131442.0
131722.0
132054.0
132317.0
132440.0
132433.0
132367.0
132329.0
132378.0
132520.0
132709.0
132885.0
133002.0
133056.0
133080.0
133121.0
133217.0
133378.0
133588.0
133819.0
134048.0
134266.0
134486.0
134722.0
134986.0
135278.0
135577.0
135868.0
136132.0
136369.0
136585.0
136789.0
136983.0
137147.0
137248.0
137244.0
137093.0
136778.0
136308.0
135713.0
135039.0
134343.0
133669.0
133054.0
132514.0
132051.0
131662.0
131342.0
131091.0
130908.0
130796.0
130754.0
130773.0
130842.0
130947.0
131071.0
131207.0
131347.0
131491.0
131640.0
131787.0
131930.0
132067.0
132189.0
132300.0
132401.0
132498.0
132596.0
132696.0
132795.0
132890.0
132975.0
133047.0
133106.0
133153.0
133187.0
133207.0
133210.0
133191.0
133152.0
133097.0
133040.0
132992.0
132962.0
132952.0
132949.0
132935.0
132886.0
132797.0
132673.0
132533.0
132402.0
132298.0
132227.0
132185.0
132162.0
132151.0
132156.0
132183.0
132423.0
132509.0
132571.0
132614.0
132678.0
132815.0
133071.0
133947.0
134439.0
134838.0
135062.0
135078.0
134910.0
134613.0
134235.0
133799.0
133287.0
132682.0
132001.0
131317.0
130752.0
130426.0
130387.0
130571.0
130815.0
130914.0
130744.0
130325.0
129519.0
129565.0
129964.0
130495.0
130817.0
130663.0
130053.0
129384.0
129352.0
130675.0
133744.0
138343.0
143575.0
148092.0
150529.0
150012.0
146517.0
140921.0
134724.0
129528.0
126493.0
125972.0
127472.0
129934.0
132188.0
133402.0
133341.0
132344.0
131075.0
130176.0
129993.0
130471.0
131259.0
131917.0
132145.0
130695.0
130817.0
131168.0
131543.0
131755.0
131352.0
131275.0
131390.0
131658.0
131971.0
132213.0
132319.0
132299.0
132226.0
132189.0
132243.0
132393.0
132587.0
132764.0
132882.0
132933.0
132953.0
132988.0
133076.0
133234.0
133447.0
133691.0
133940.0
134184.0
134938.0
135205.0
135470.0
135719.0
135950.0
136169.0
136385.0
136607.0
136827.0
137022.0
137155.0
137178.0
137056.0
136773.0
135150.0
134482.0
133826.0
133211.0
132658.0
132182.0
131781.0
131456.0
130865.0
130870.0
130920.0
131007.0
131122.0
131255.0
131394.0
131534.0
131663.0
131783.0
131892.0
131997.0
132106.0
132229.0
132362.0
132503.0
132862.0
132933.0
132982.0
133023.0
133062.0
133108.0
133159.0
133208.0
133243.0
133258.0
133247.0
133215.0
133166.0
133113.0
133059.0
133006.0
132954.0
132904.0
132859.0
132818.0
132785.0
132759.0
132737.0
132711.0
132673.0
132626.0
132577.0
132542.0
132527.0
132529.0
132533.0
132515.0
132461.0
132372.0
132267.0
132185.0
132158.0
132203.0
132309.0
132436.0
132546.0
132618.0
132667.0
132746.0
132917.0
133219.0
133650.0
134141.0
134599.0
134925.0
135062.0
135003.0
134785.0
134458.0
134051.0
131010.0
130610.0
130481.0
130581.0
130861.0
130711.0
130317.0
129828.0
129487.0
129492.0
129872.0
130438.0
130856.0
130826.0
130290.0
129573.0
129320.0
130275.0
132924.0
137199.0
142348.0
147101.0
150063.0
150229.0
147375.0
142186.0
136050.0
130575.0
127041.0
125986.0
127092.0
129400.0
133359.0
132507.0
131239.0
130229.0
129902.0
130292.0
131092.0
131862.0
132249.0
132140.0
131680.0
131158.0
130842.0
130854.0
131136.0
131502.0
131762.0
131809.0
131667.0
131466.0
131347.0
131399.0
131615.0
131907.0
132160.0
132301.0
132317.0
132264.0
132224.0
132254.0
132368.0
132532.0
132692.0
132801.0
132853.0
132873.0
132903.0
132987.0
133139.0
133350.0
133597.0
133849.0
134094.0
134821.0
135083.0
135349.0
135609.0
135853.0
136082.0
136297.0
136505.0
136706.0
136886.0
137022.0
137077.0
137018.0
136826.0
136490.0
136024.0
135456.0
134821.0
134162.0
133519.0
132927.0
132405.0
131967.0
131616.0
131347.0
131152.0
131023.0
130951.0
130926.0
130998.0
131080.0
131183.0
131304.0
131436.0
131581.0
131728.0
131880.0
132034.0
132183.0
132323.0
132563.0
132657.0
132736.0
132803.0
132864.0
132919.0
132973.0
133024.0
133070.0
133104.0
133125.0
133131.0
133122.0
133102.0
133076.0
133048.0
133020.0
132992.0
132962.0
132926.0
132877.0
132819.0
132755.0
132692.0
132642.0
132611.0
132606.0
132625.0
132658.0
132693.0
132715.0
132718.0
132696.0
132661.0
132630.0
132617.0
132622.0
132639.0
132642.0
132612.0
132539.0
132435.0
132333.0
132275.0
132288.0
132376.0
132509.0
132641.0
132726.0
132754.0
132756.0
132801.0
132961.0
133277.0
133734.0
134249.0
134712.0
135021.0
135122.0
135023.0
134775.0
134433.0
134030.0
133551.0
132974.0
132302.0
131596.0
130975.0
130569.0
130448.0
130576.0
130799.0
130916.0
130773.0
130362.0
129841.0
129458.0
129427.0
129785.0
130343.0
130759.0
130185.0
129470.0
129240.0
130244.0
132973.0
137341.0
142576.0
147375.0
150336.0
150450.0
147517.0
142253.0
136076.0
126105.0
127247.0
129552.0
131841.0
133215.0
133329.0
132432.0
131154.0
130157.0
131001.0
131715.0
132043.0
131900.0
131445.0
130967.0
130713.0
130783.0
131094.0
131449.0
131666.0
131658.0
131478.0
131271.0
131182.0
131289.0
131564.0
131898.0
132169.0
132303.0
132301.0
132233.0
132188.0
132230.0
132366.0
132553.0
132728.0
132843.0
132888.0
132893.0
132908.0
132974.0
133110.0
133307.0
133541.0
133789.0
134039.0
134294.0
134562.0
134845.0
135131.0
135404.0
135645.0
135849.0
136022.0
136185.0
136359.0
136554.0
136754.0
136930.0
137032.0
137013.0
136845.0
136521.0
136060.0
134232.0
133606.0
133024.0
132503.0
132049.0
131670.0
131369.0
131146.0
130995.0
130911.0
130879.0
130888.0
130929.0
130997.0
131088.0
131205.0
131665.0
131825.0
131971.0
132095.0
132200.0
132292.0
132379.0
132468.0
132564.0
132662.0
132758.0
132842.0
132910.0
132962.0
132999.0
133025.0
133043.0
133059.0
133071.0
133080.0
133090.0
133099.0
133103.0
133101.0
133082.0
132909.0
132835.0
132777.0
132745.0
132739.0
132748.0
132751.0
132725.0
132669.0
132463.0
132461.0
132494.0
132536.0
132548.0
132510.0
132428.0
132338.0
132287.0
132312.0
132423.0
132583.0
132809.0
132811.0
132928.0
133204.0
133621.0
134101.0
134530.0
134807.0
134886.0
134770.0
134506.0
134139.0
133691.0
133157.0
132533.0
131851.0
131197.0
130693.0
130441.0
130461.0
130660.0
130863.0
130877.0
130613.0
130134.0
129644.0
129387.0
129509.0
129945.0
130437.0
130645.0
130365.0
