131392.0
131373.0
131414.0
131502.0
131621.0
131761.0
131914.0
132075.0
132244.0
132420.0
132597.0
132768.0
132926.0
133064.0
133178.0
133268.0
133341.0
133408.0
133476.0
133553.0
133636.0
133722.0
133803.0
133865.0
133906.0
133927.0
133933.0
133934.0
133935.0
133937.0
133934.0
133917.0
133879.0
133825.0
133761.0
133698.0
133648.0
133618.0
133597.0
133576.0
133538.0
133477.0
133393.0
133302.0
133225.0
133221.0
133181.0
133111.0
133023.0
133066.0
133169.0
133301.0
133417.0
133534.0
133733.0
134106.0
134615.0
135155.0
135585.0
135783.0
135697.0
135359.0
134872.0
134359.0
133905.0
133526.0
133170.0
132773.0
132304.0
131809.0
131389.0
131154.0
131151.0
131318.0
131505.0
131547.0
131348.0
130957.0
130555.0
130364.0
130512.0
130948.0
131428.0
131646.0
131425.0
130887.0
130498.0
130946.0
132836.0
136374.0
141141.0
146105.0
149913.0
151344.0
149774.0
145458.0
139480.0
133403.0
128735.0
126425.0
126583.0
128528.0
131121.0
133895.0
132788.0
131564.0
130822.0
130822.0
131432.0
132263.0
132891.0
133063.0
132790.0
132298.0
131882.0
131750.0
131932.0
132291.0
132625.0
132763.0
132667.0
132424.0
132189.0
132098.0
132199.0
132440.0
132710.0
132900.0
132838.0
132818.0
132903.0
133079.0
133294.0
133479.0
133595.0
133638.0
133643.0
133656.0
133707.0
133809.0
133953.0
134114.0
134281.0
134448.0
134633.0
134847.0
135096.0
135376.0
135668.0
135952.0
136221.0
136475.0
136728.0
136991.0
137267.0
137546.0
137794.0
138013.0
137911.0
137648.0
137238.0
136710.0
136102.0
135457.0
134803.0
134171.0
133577.0
133031.0
132543.0
132125.0
131790.0
131547.0
131394.0
131397.0
131504.0
131633.0
131783.0
131946.0
132120.0
132300.0
132480.0
132653.0
132813.0
132960.0
133095.0
133220.0
133339.0
133450.0
133553.0
133643.0
133711.0
133758.0
133787.0
133805.0
133818.0
133834.0
133851.0
133869.0
133878.0
133850.0
133808.0
133756.0
133703.0
133658.0
133622.0
133594.0
133569.0
133544.0
133514.0
133484.0
133458.0
133448.0
133455.0
133474.0
133496.0
133511.0
133508.0
133487.0
133453.0
133418.0
133396.0
133398.0
133415.0
133390.0
133319.0
133239.0
133176.0
133163.0
133207.0
133293.0
133388.0
133455.0
133476.0
133475.0
133506.0
133642.0
133925.0
134350.0
134839.0
135272.0
135522.0
135510.0
135238.0
134786.0
134277.0
133813.0
133440.0
133129.0
132810.0
132428.0
131991.0
131581.0
131311.0
131261.0
131418.0
131658.0
131801.0
131702.0
131342.0
130858.0
130480.0
130413.0
130705.0
131193.0
131571.0
131558.0
131107.0
130520.0
130415.0
131494.0
134209.0
138468.0
143518.0
148105.0
150871.0
150846.0
147842.0
142562.0
136403.0
130964.0
127509.0
126559.0
130185.0
132607.0
134114.0
134338.0
133508.0
132243.0
131220.0
130866.0
131223.0
131987.0
132722.0
133084.0
132965.0
132515.0
132015.0
131731.0
131779.0
132085.0
132459.0
132701.0
132712.0
132528.0
132285.0
132135.0
132172.0
132383.0
132677.0
132929.0
133061.0
133061.0
132989.0
132933.0
132960.0
133084.0
133263.0
133431.0
133536.0
133558.0
133521.0
133474.0
133465.0
133525.0
133652.0
133825.0
134022.0
134226.0
134440.0
134674.0
134940.0
135240.0
135565.0
135895.0
136216.0
136511.0
136781.0
137030.0
137265.0
137489.0
137694.0
137852.0
137934.0
137909.0
137749.0
137441.0
136984.0
136399.0
135719.0
134994.0
134274.0
133605.0
133020.0
132537.0
132158.0
131875.0
131671.0
131534.0
131454.0
131426.0
131452.0
131530.0
131657.0
131828.0
132026.0
132238.0
132441.0
132622.0
132775.0
132900.0
133003.0
133175.0
133262.0
133355.0
133452.0
133545.0
133631.0
133707.0
133770.0
133821.0
133865.0
133900.0
133933.0
133960.0
133983.0
133995.0
133994.0
133978.0
133949.0
133912.0
133873.0
133834.0
133800.0
133772.0
133744.0
133709.0
133664.0
133610.0
133401.0
133379.0
133367.0
133361.0
133353.0
133343.0
133336.0
133338.0
133349.0
133369.0
133394.0
133420.0
133444.0
133459.0
133466.0
133463.0
133457.0
133451.0
133448.0
133446.0
133451.0
133455.0
133455.0
133452.0
133456.0
133482.0
133564.0
133732.0
133997.0
134342.0
134706.0
135004.0
135152.0
135089.0
134820.0
134404.0
133948.0
133549.0
133255.0
133046.0
132853.0
132600.0
132260.0
131881.0
131570.0
131434.0
131515.0
131745.0
131965.0
131997.0
131746.0
131264.0
130750.0
130449.0
131410.0
131650.0
131410.0
130771.0
130182.0
130358.0
131988.0
135380.0
140209.0
145491.0
149836.0
151906.0
150921.0
146974.0
141053.0
134722.0
128124.0
130689.0
132955.0
134121.0
133993.0
132947.0
131664.0
130786.0
130638.0
131155.0
131975.0
132665.0
132935.0
132751.0
132313.0
131905.0
131756.0
131929.0
132306.0
132687.0
132893.0
132861.0
132657.0
132426.0
132306.0
132363.0
132567.0
132819.0
133010.0
133085.0
133051.0
132974.0
132932.0
132970.0
133083.0
133227.0
133350.0
133421.0
133443.0
133449.0
133483.0
133577.0
133737.0
133937.0
134153.0
134357.0
134548.0
134740.0
134954.0
135201.0
136060.0
136319.0
136537.0
136721.0
136890.0
137056.0
137232.0
137404.0
137543.0
137612.0
137572.0
137396.0
137071.0
136611.0
136042.0
135416.0
134776.0
134163.0
133602.0
133106.0
132679.0
132313.0
132005.0
131760.0
131585.0
131486.0
131468.0
131524.0
131638.0
131789.0
131954.0
132113.0
132257.0
132384.0
132501.0
132617.0
132738.0
132869.0
133007.0
133146.0
133278.0
133398.0
133502.0
133587.0
133659.0
133715.0
133763.0
133801.0
133828.0
133845.0
133853.0
133850.0
133841.0
133824.0
133802.0
133778.0
133754.0
133657.0
133633.0
133602.0
133568.0
133523.0
133470.0
133411.0
133350.0
133301.0
133270.0
133263.0
133280.0
133311.0
133339.0
133358.0
133359.0
133343.0
133322.0
133302.0
133290.0
133294.0
133315.0
133366.0
133468.0
133648.0
133916.0
134265.0
134646.0
134978.0
135170.0
135162.0
134938.0
134556.0
134112.0
133709.0
133411.0
133209.0
133038.0
132817.0
132500.0
132121.0
131776.0
131577.0
131585.0
131762.0
131969.0
132035.0
131845.0
131424.0
130941.0
130631.0
130669.0
131049.0
131566.0
131888.0
131760.0
131193.0
130563.0
130536.0
131813.0
134794.0
139288.0
144446.0
148954.0
151455.0
151039.0
147614.0
141977.0
135583.0
130045.0
126593.0
125701.0
126990.0
129474.0
131982.0
133613.0
134002.0
133367.0
132292.0
131407.0
131110.0
131435.0
132114.0
132754.0
133056.0
132938.0
132546.0
132137.0
131936.0
132031.0
132342.0
132690.0
132900.0
132890.0
132703.0
132474.0
132340.0
132382.0
132583.0
132855.0
133090.0
133213.0
133215.0
133149.0
133091.0
133094.0
133172.0
133296.0
133415.0
133491.0
133519.0
133522.0
133537.0
133601.0
133720.0
133892.0
134092.0
134303.0
134517.0
134746.0
135000.0
135285.0
135590.0
135894.0
136172.0
136410.0
136603.0
136767.0
136923.0
137091.0
137278.0
137464.0
137614.0
137676.0
137617.0
137408.0
137052.0
136570.0
135999.0
135387.0
134777.0
134194.0
133654.0
133162.0
132716.0
131715.0
131529.0
131432.0
131419.0
131473.0
131571.0
131691.0
131816.0
131941.0
132067.0
132204.0
132359.0
132534.0
132727.0
132925.0
133115.0
133547.0
133649.0
133739.0
133818.0
133888.0
133945.0
133985.0
134006.0
134008.0
133995.0
133972.0
133923.0
133900.0
133882.0
133867.0
133851.0
133829.0
133802.0
133768.0
133730.0
133691.0
133653.0
133619.0
133590.0
133567.0
133546.0
133520.0
133486.0
133449.0
133416.0
133398.0
133396.0
133411.0
133429.0
133442.0
133437.0
133410.0
133368.0
133323.0
133292.0
133290.0
133317.0
133383.0
133494.0
133663.0
133896.0
134194.0
134523.0
134830.0
134216.0
133822.0
133507.0
132580.0
132177.0
131762.0
131460.0
131368.0
131494.0
131733.0
131908.0
131859.0
131543.0
131065.0
130511.0
130743.0
131224.0
131662.0
131747.0
131359.0
130720.0
130398.0
142405.0
147303.0
150681.0
151410.0
149065.0
144136.0
137892.0
131962.0
127778.0
126101.0
126821.0
129093.0
131728.0
133666.0
134346.0
133835.0
132666.0
131540.0
130984.0
131159.0
131853.0
132648.0
133153.0
133179.0
132806.0
132291.0
131920.0
131861.0
132098.0
132467.0
132764.0
132849.0
132716.0
132469.0
132265.0
132217.0
132351.0
132601.0
132858.0
133058.0
133031.0
133073.0
133204.0
133398.0
133598.0
133745.0
133814.0
133817.0
133790.0
133780.0
133812.0
133898.0
134022.0
134170.0
135239.0
135503.0
135753.0
135979.0
136184.0
136394.0
136631.0
136910.0
137228.0
137551.0
137828.0
138002.0
137127.0
136573.0
135963.0
135331.0
134709.0
134115.0
133562.0
133058.0
132610.0
132228.0
131914.0
131679.0
131522.0
131441.0
131427.0
131465.0
131542.0
131650.0
131774.0
131909.0
132048.0
132195.0
132346.0
132506.0
132669.0
132998.0
133151.0
133292.0
133416.0
133525.0
133623.0
133720.0
133814.0
133911.0
134147.0
134189.0
134206.0
134202.0
134180.0
134151.0
134113.0
134068.0
134017.0
133957.0
133890.0
133815.0
133738.0
133660.0
133588.0
133524.0
133469.0
133424.0
133389.0
133364.0
133344.0
133320.0
133295.0
133271.0
133251.0
133244.0
133253.0
133276.0
133301.0
133325.0
133339.0
133346.0
133352.0
133370.0
133411.0
133484.0
133588.0
133724.0
133894.0
134101.0
134348.0
134627.0
134902.0
135123.0
135229.0
135178.0
134962.0
134618.0
134219.0
133844.0
133535.0
133285.0
133037.0
132722.0
132319.0
131867.0
131469.0
131241.0
131243.0
131433.0
131669.0
131771.0
131618.0
131220.0
130742.0
130418.0
130435.0
130808.0
131338.0
131706.0
131644.0
131143.0
130555.0
130531.0
134698.0
139145.0
144292.0
148838.0
151420.0
151116.0
147811.0
142293.0
136008.0
130571.0
127215.0
126402.0
127735.0
130203.0
132621.0
134086.0
134272.0
133439.0
132220.0
131283.0
131024.0
131450.0
132240.0
132955.0
133265.0
133087.0
132592.0
132075.0
131796.0
131856.0
132171.0
132541.0
132762.0
132738.0
132514.0
132234.0
132059.0
132075.0
132272.0
132553.0
132797.0
132919.0
132916.0
132847.0
132800.0
132839.0
132981.0
133182.0
133379.0
133519.0
133584.0
133601.0
133612.0
133662.0
133774.0
133940.0
134138.0
134343.0
134544.0
134741.0
134950.0
135182.0
135440.0
135717.0
135997.0
136272.0
136536.0
136794.0
137054.0
137320.0
137982.0
138042.0
137967.0
137743.0
137379.0
136892.0
136317.0
135685.0
135032.0
134387.0
133769.0
133199.0
132693.0
132268.0
131933.0
131693.0
131545.0
131476.0
131471.0
131510.0
131765.0
131887.0
132031.0
132191.0
132362.0
132530.0
132688.0
132829.0
132954.0
133063.0
133166.0
133268.0
133367.0
133458.0
133540.0
133608.0
133668.0
133727.0
133791.0
133864.0
133943.0
134018.0
134076.0
134104.0
133992.0
133928.0
133879.0
133843.0
133826.0
133813.0
133798.0
133769.0
133724.0
133670.0
133614.0
133560.0
133504.0
133453.0
133406.0
133371.0
133353.0
133354.0
133371.0
133396.0
133416.0
133420.0
133406.0
133377.0
133353.0
133346.0
133371.0
133438.0
133548.0
133703.0
133910.0
134169.0
134462.0
134757.0
134994.0
135109.0
135056.0
134824.0
134457.0
134037.0
133652.0
133356.0
133139.0
132944.0
132699.0
132367.0
131979.0
131630.0
131430.0
131443.0
131630.0
131855.0
131939.0
131765.0
130932.0
131460.0
131806.0
131703.0
130423.0
131650.0
134596.0
139091.0
144291.0
148876.0
151469.0
151140.0
147785.0
130478.0
127164.0
126408.0
127792.0
130279.0
132678.0
134091.0
134208.0
133310.0
132043.0
131078.0
130808.0
131230.0
132019.0
132734.0
133053.0
132903.0
132455.0
132004.0
131796.0
131922.0
132283.0
132675.0
132901.0
132393.0
132236.0
132266.0
132467.0
132736.0
132951.0
133036.0
132997.0
132898.0
132832.0
132860.0
132989.0
133173.0
133351.0
133474.0
133529.0
133547.0
133576.0
133653.0
133791.0
133974.0
134172.0
134359.0
134527.0
135382.0
135694.0
136020.0
136334.0
136620.0
136878.0
137115.0
137344.0
137563.0
137758.0
137902.0
137954.0
137887.0
137680.0
137329.0
136850.0
136274.0
135635.0
134973.0
134322.0
133704.0
133144.0
132654.0
132245.0
131924.0
131687.0
131532.0
131449.0
131422.0
131441.0
131494.0
131577.0
131688.0
131825.0
131985.0
132159.0
132338.0
132513.0
132677.0
132828.0
132970.0
133110.0
133251.0
133395.0
133536.0
133663.0
133902.0
133938.0
133966.0
133992.0
134021.0
134046.0
134062.0
134057.0
133828.0
133796.0
133774.0
133754.0
133725.0
133680.0
133610.0
133524.0
133430.0
133347.0
133289.0
133265.0
133271.0
133294.0
133316.0
133318.0
133293.0
133254.0
133214.0
133192.0
133199.0
133236.0
133302.0
133395.0
133520.0
133699.0
133949.0
134269.0
134628.0
134955.0
135163.0
135182.0
134986.0
134611.0
134150.0
133706.0
133355.0
133113.0
132927.0
132719.0
132439.0
132098.0
131780.0
131591.0
131591.0
131750.0
131940.0
132003.0
131818.0
131404.0
130918.0
130587.0
130591.0
130933.0
131412.0
131701.0
131543.0
130938.0
130262.0
130188.0
131444.0
134457.0
139065.0
144421.0
149187.0
151951.0
151741.0
148407.0
142733.0
136193.0
130449.0
126797.0
125762.0
126992.0
129481.0
132017.0
133656.0
134010.0
133297.0
132123.0
131153.0
130813.0
131145.0
131864.0
132552.0
132883.0
132769.0
132355.0
131924.0
131725.0
131853.0
132228.0
132650.0
132926.0
132956.0
132776.0
132526.0
132362.0
132375.0
132554.0
132813.0
133034.0
133143.0
133135.0
133064.0
133010.0
133037.0
133151.0
133314.0
133463.0
133553.0
133576.0
133559.0
133558.0
133612.0
133740.0
133928.0
134146.0
134369.0
134584.0
134796.0
135026.0
135290.0
135586.0
135900.0
136203.0
136470.0
136695.0
136883.0
137054.0
137227.0
137411.0
137595.0
137741.0
137803.0
137740.0
137525.0
137159.0
136662.0
136075.0
135447.0
134820.0
134227.0
133682.0
133186.0
132737.0
132334.0
131986.0
131705.0
131509.0
131405.0
131395.0
131462.0
131585.0
131731.0
131881.0
132017.0
132140.0
132259.0
132390.0
132539.0
132709.0
132893.0
133077.0
133241.0
133374.0
133470.0
133539.0
133589.0
133637.0
133689.0
133749.0
133817.0
133882.0
133971.0
133959.0
133932.0
133892.0
133841.0
133781.0
133715.0
133648.0
133581.0
133520.0
133468.0
133430.0
133410.0
133409.0
133431.0
133468.0
133514.0
133557.0
133585.0
133604.0
133637.0
133717.0
133887.0
134167.0
134538.0
134939.0
135275.0
135447.0
135389.0
135105.0
134662.0
134169.0
133726.0
133382.0
133117.0
132866.0
132564.0
132195.0
131818.0
131541.0
131464.0
131610.0
131894.0
131936.0
131484.0
131034.0
130821.0
130974.0
131419.0
131884.0
132036.0
131685.0
130961.0
130367.0
130631.0
132403.0
135915.0
140749.0
145855.0
149831.0
151408.0
149909.0
145558.0
139435.0
133125.0
128187.0
125632.0
130235.0
132584.0
133835.0
133834.0
132968.0
131886.0
131170.0
131105.0
131598.0
132313.0
132864.0
133020.0
132791.0
132382.0
132062.0
132017.0
132265.0
132666.0
133017.0
133159.0
133053.0
132791.0
132523.0
132392.0
132447.0
132648.0
132888.0
133066.0
133127.0
133091.0
133029.0
133019.0
133100.0
133258.0
133444.0
133600.0
133690.0
133722.0
133737.0
133782.0
133893.0
134077.0
134308.0
134553.0
134783.0
134995.0
135202.0
135426.0
135683.0
135975.0
136288.0
136591.0
136864.0
137093.0
137283.0
137913.0
137848.0
137638.0
137264.0
136096.0
135391.0
134677.0
134004.0
133402.0
132884.0
132452.0
132102.0
131827.0
131624.0
131492.0
131429.0
131424.0
131472.0
131555.0
131664.0
131790.0
131933.0
132094.0
132267.0
132450.0
132634.0
132806.0
132958.0
133082.0
133186.0
133280.0
133377.0
133479.0
133588.0
133694.0
133781.0
133844.0
133877.0
133886.0
133884.0
133884.0
133893.0
133913.0
133932.0
133941.0
133925.0
133885.0
133825.0
133751.0
133676.0
133607.0
133552.0
133513.0
133482.0
133455.0
133432.0
133413.0
133403.0
133412.0
133437.0
133481.0
133529.0
133564.0
133577.0
133570.0
133569.0
133618.0
133765.0
134038.0
134425.0
134867.0
135262.0
135502.0
135508.0
135273.0
134852.0
134356.0
133887.0
133505.0
133197.0
132908.0
132568.0
132156.0
131724.0
131377.0
131220.0
131289.0
131508.0
131719.0
131750.0
131519.0
131089.0
130655.0
130442.0
130581.0
131009.0
131467.0
131636.0
131330.0
130684.0
130202.0
130603.0
132537.0
136226.0
141241.0
146511.0
150613.0
152259.0
150772.0
146390.0
140227.0
133906.0
129003.0
126528.0
126617.0
128582.0
131247.0
133447.0
134443.0
134139.0
132983.0
131692.0
130886.0
130843.0
131429.0
132249.0
132863.0
133011.0
132705.0
132181.0
131744.0
131615.0
131819.0
132215.0
132581.0
132746.0
132661.0
132417.0
132173.0
132068.0
132162.0
132403.0
132679.0
132882.0
132959.0
132933.0
132886.0
132893.0
132992.0
133168.0
133365.0
133520.0
133600.0
133615.0
133610.0
133640.0
133740.0
133914.0
134137.0
134374.0
134603.0
134819.0
135035.0
135271.0
135538.0
135835.0
136146.0
136452.0
136739.0
137003.0
137252.0
137496.0
137736.0
137953.0
138124.0
137904.0
137526.0
137010.0
136395.0
135725.0
135044.0
134389.0
133786.0
133247.0
132781.0
132384.0
132052.0
131790.0
131597.0
131476.0
131427.0
131447.0
131527.0
131652.0
131808.0
131976.0
132142.0
132295.0
132435.0
132564.0
132692.0
132820.0
132955.0
133092.0
133227.0
133355.0
133467.0
133563.0
133645.0
133720.0
133789.0
133852.0
133904.0
133942.0
133958.0
133956.0
133938.0
133888.0
133885.0
133879.0
133858.0
133817.0
133755.0
133675.0
133590.0
133515.0
133458.0
133425.0
133407.0
133390.0
133361.0
133319.0
133273.0
133238.0
133230.0
133256.0
133312.0
133382.0
133443.0
133491.0
133539.0
134516.0
134966.0
135352.0
135567.0
135537.0
135255.0
134794.0
134264.0
133773.0
133376.0
133060.0
132759.0
132411.0
132004.0
131597.0
131299.0
131200.0
131320.0
131563.0
131761.0
131750.0
131467.0
131004.0
130574.0
130403.0
130598.0
131060.0
131515.0
131646.0
131312.0
130703.0
130361.0
131014.0
133252.0
137190.0
142287.0
147392.0
151085.0
152163.0
150109.0
145320.0
139026.0
132868.0
128345.0
126317.0
126766.0
128896.0
131517.0
134290.0
133825.0
132642.0
131450.0
130810.0
133039.0
132688.0
132167.0
131776.0
132339.0
132678.0
132809.0
132706.0
132471.0
132262.0
132202.0
132317.0
132553.0
132794.0
132942.0
132966.0
132900.0
132823.0
132810.0
132891.0
133044.0
133214.0
133351.0
133430.0
133468.0
133501.0
133574.0
133710.0
133903.0
134125.0
134353.0
134571.0
134782.0
135006.0
135255.0
135535.0
135837.0
136142.0
136437.0
136716.0
136981.0
137247.0
137518.0
137787.0
138032.0
138211.0
138279.0
138200.0
137960.0
137560.0
137024.0
136389.0
135694.0
134981.0
134290.0
133650.0
133083.0
132602.0
132213.0
131917.0
131705.0
131562.0
131480.0
131447.0
131456.0
131501.0
131579.0
131692.0
131833.0
131993.0
132166.0
132336.0
132501.0
132654.0
132795.0
132924.0
133048.0
133166.0
133280.0
133393.0
133501.0
133605.0
133708.0
133808.0
133903.0
133988.0
134059.0
134109.0
134136.0
134145.0
134139.0
134127.0
134115.0
134108.0
134104.0
134095.0
134073.0
134034.0
133977.0
133905.0
133828.0
133756.0
133697.0
133654.0
133623.0
133595.0
133566.0
133533.0
133498.0
133468.0
133449.0
133443.0
133447.0
133458.0
133466.0
133438.0
133406.0
133381.0
133368.0
133372.0
133381.0
133378.0
133350.0
133298.0
133233.0
133201.0
133284.0
133424.0
133583.0
133711.0
133775.0
133780.0
133775.0
133836.0
134030.0
134378.0
134839.0
135306.0
135658.0
135798.0
135701.0
135403.0
134989.0
134536.0
134081.0
133619.0
133117.0
132566.0
132011.0
131553.0
131292.0
131277.0
131448.0
131652.0
131710.0
131510.0
131081.0
130601.0
130309.0
130371.0
130768.0
131273.0
131552.0
131362.0
130754.0
130157.0
130282.0
131835.0
135168.0
140005.0
145398.0
149955.0
147847.0
142009.0
135623.0
130312.0
127233.0
126713.0
128228.0
130694.0
132930.0
134110.0
134015.0
132997.0
131729.0
130848.0
130689.0
131186.0
131982.0
132640.0
132868.0
132633.0
132144.0
131700.0
131536.0
131711.0
132103.0
132500.0
132715.0
132679.0
132465.0
132224.0
132107.0
132184.0
132419.0
132702.0
132917.0
132994.0
132950.0
132860.0
132812.0
132859.0
133002.0
133191.0
133359.0
133490.0
133486.0
133495.0
133565.0
133704.0
133900.0
134120.0
134340.0
134551.0
134763.0
134998.0
135273.0
135590.0
135934.0
136279.0
136602.0
136886.0
137134.0
137360.0
137578.0
137790.0
137987.0
138133.0
138189.0
138118.0
137892.0
137508.0
136982.0
136350.0
135658.0
134951.0
134264.0
133628.0
133059.0
132567.0
132156.0
131827.0
131589.0
131440.0
131376.0
131387.0
131458.0
131573.0
131714.0
131871.0
132032.0
132192.0
132350.0
132503.0
132650.0
132791.0
132926.0
133057.0
133184.0
133309.0
133427.0
133534.0
133624.0
133696.0
133748.0
133782.0
133802.0
133815.0
133826.0
133836.0
133848.0
133860.0
133873.0
133889.0
133905.0
133925.0
133940.0
133947.0
133941.0
133920.0
133883.0
133836.0
133788.0
133748.0
133723.0
133709.0
133685.0
133664.0
133629.0
133587.0
133542.0
133501.0
133464.0
133433.0
133409.0
133397.0
133401.0
133419.0
133440.0
133450.0
133437.0
133399.0
133346.0
133311.0
133320.0
133395.0
133531.0
133690.0
133820.0
133869.0
133825.0
133725.0
133647.0
133685.0
133901.0
134301.0
134806.0
135289.0
135616.0
135700.0
135534.0
135182.0
134738.0
134285.0
133849.0
133406.0
132919.0
132381.0
131849.0
131423.0
131207.0
131236.0
131432.0
131634.0
131662.0
131425.0
130978.0
130519.0
130282.0
130410.0
130851.0
131350.0
131574.0
131318.0
130690.0
130170.0
130487.0
132311.0
135911.0
140903.0
146258.0
150556.0
152473.0
151266.0
147080.0
140958.0
134485.0
129261.0
126371.0
126055.0
127730.0
130290.0
132577.0
133809.0
133798.0
132911.0
131790.0
131041.0
130963.0
131480.0
132245.0
132858.0
133065.0
132852.0
132420.0
132046.0
131937.0
132127.0
132494.0
132837.0
132993.0
132915.0
132679.0
132434.0
132315.0
132383.0
132592.0
132837.0
133008.0
133046.0
132969.0
132851.0
132775.0
132792.0
132904.0
133069.0
133228.0
133341.0
133405.0
133443.0
133502.0
133615.0
133791.0
134020.0
134822.0
135096.0
135381.0
135679.0
135981.0
136275.0
136546.0
136784.0
136991.0
137686.0
137814.0
137880.0
137856.0
137715.0
137449.0
137061.0
136569.0
135999.0
135384.0
134759.0
134153.0
133591.0
133091.0
132661.0
132308.0
132029.0
131819.0
131676.0
131594.0
131563.0
131578.0
131633.0
131722.0
131837.0
131973.0
132119.0
132271.0
132427.0
132582.0
132734.0
132883.0
133030.0
133174.0
133315.0
133449.0
133569.0
133674.0
133762.0
133837.0
133903.0
133964.0
134023.0
134082.0
134137.0
134178.0
134197.0
134187.0
134150.0
134093.0
134026.0
133962.0
133910.0
133870.0
133837.0
133802.0
133757.0
133703.0
133649.0
133604.0
133576.0
133567.0
133571.0
133576.0
133570.0
133545.0
133502.0
133457.0
133428.0
133424.0
133442.0
133460.0
133456.0
133412.0
133329.0
133233.0
133167.0
133166.0
133251.0
133399.0
133560.0
133674.0
133711.0
133678.0
133639.0
133676.0
133864.0
134225.0
134708.0
135201.0
135574.0
135729.0
135637.0
135349.0
134951.0
134528.0
134115.0
133697.0
133231.0
132698.0
132136.0
131646.0
131342.0
131289.0
131442.0
131657.0
131750.0
131591.0
131189.0
130703.0
130368.0
130372.0
130726.0
131234.0
131571.0
131480.0
130962.0
130387.0
130424.0
131783.0
134863.0
139477.0
144764.0
149396.0
151994.0
151626.0
148203.0
142540.0
136112.0
130557.0
127113.0
126244.0
127555.0
130024.0
132461.0
133963.0
134186.0
133383.0
132173.0
131214.0
130902.0
131259.0
131986.0
132669.0
132991.0
132872.0
132463.0
132042.0
131845.0
131959.0
132297.0
132665.0
132879.0
132861.0
132657.0
132411.0
132270.0
132315.0
132528.0
132809.0
133040.0
133147.0
133128.0
133042.0
132973.0
132979.0
133066.0
133200.0
133321.0
133391.0
133404.0
133389.0
133394.0
134022.0
134253.0
134485.0
134726.0
134994.0
135302.0
135644.0
136003.0
136353.0
136671.0
136950.0
137202.0
137442.0
137690.0
137942.0
138178.0
138355.0
138427.0
138348.0
138100.0
137686.0
137130.0
136477.0
135781.0
135084.0
134417.0
133803.0
133246.0
132752.0
132321.0
131956.0
131666.0
131454.0
131322.0
131263.0
131267.0
131316.0
131399.0
131506.0
131628.0
131768.0
131924.0
132098.0
132663.0
132838.0
133000.0
133147.0
133285.0
133417.0
133549.0
133681.0
133810.0
133929.0
134037.0
134126.0
134200.0
134257.0
134301.0
134332.0
134350.0
134351.0
134338.0
134307.0
134263.0
134213.0
134163.0
134116.0
134072.0
134028.0
133978.0
133918.0
133851.0
133779.0
133707.0
133645.0
133599.0
133569.0
133549.0
133530.0
133506.0
133475.0
133438.0
133405.0
133383.0
133382.0
133406.0
133448.0
133495.0
133534.0
133556.0
133556.0
133543.0
133521.0
133504.0
133493.0
133492.0
133501.0
133516.0
133532.0
133549.0
133560.0
133569.0
133575.0
133580.0
133589.0
133607.0
133633.0
133667.0
133702.0
133784.0
133853.0
133973.0
134160.0
134416.0
135124.0
134926.0
134580.0
134169.0
133786.0
133492.0
133284.0
133103.0
132866.0
131663.0
131372.0
131298.0
131429.0
131647.0
131773.0
131667.0
131305.0
130818.0
130424.0
130321.0
130558.0
130984.0
131311.0
131281.0
130860.0
130366.0
130413.0
131693.0
134647.0
139164.0
144477.0
149305.0
152260.0
152339.0
149323.0
143902.0
137486.0
131710.0
127894.0
126619.0
127600.0
129885.0
132284.0
133835.0
134130.0
133359.0
132129.0
131111.0
130750.0
131105.0
132652.0
133054.0
132970.0
132542.0
132059.0
131791.0
131863.0
132205.0
132617.0
132895.0
132925.0
132732.0
132454.0
132255.0
132241.0
132408.0
132665.0
132884.0
132978.0
132927.0
132790.0
132661.0
132615.0
132675.0
132816.0
132975.0
133096.0
133158.0
133180.0
133207.0
133283.0
133430.0
133641.0
133892.0
134155.0
134411.0
134661.0
134919.0
135200.0
135509.0
135837.0
136169.0
136485.0
136776.0
137043.0
137299.0
137555.0
137816.0
138069.0
138286.0
138423.0
138439.0
138308.0
138012.0
137566.0
136994.0
136337.0
135639.0
134942.0
134279.0
133669.0
133122.0
132643.0
132234.0
131900.0
131646.0
131472.0
131375.0
131349.0
131383.0
131458.0
131565.0
131960.0
132105.0
132253.0
132402.0
132549.0
132698.0
132847.0
132994.0
133144.0
133293.0
133440.0
133580.0
133709.0
133820.0
133916.0
133992.0
134055.0
134105.0
134142.0
134169.0
134183.0
134187.0
134179.0
134157.0
134124.0
134084.0
134037.0
133981.0
133918.0
133852.0
133784.0
133720.0
133665.0
133620.0
133588.0
133564.0
133546.0
133528.0
133508.0
133486.0
133466.0
133454.0
133455.0
133471.0
133497.0
133532.0
133567.0
133597.0
133614.0
133619.0
133616.0
133612.0
133609.0
133614.0
133625.0
133643.0
133661.0
133672.0
133672.0
133661.0
133639.0
133613.0
133592.0
133583.0
133590.0
133603.0
133614.0
133608.0
133582.0
133544.0
133515.0
133517.0
133561.0
133642.0
133735.0
133803.0
133815.0
133771.0
133708.0
133693.0
133792.0
134046.0
134433.0
134875.0
135254.0
135463.0
135445.0
135213.0
134840.0
134417.0
134014.0
133641.0
133261.0
132826.0
132332.0
131837.0
131444.0
131256.0
131304.0
131512.0
131715.0
131741.0
131500.0
131049.0
130583.0
130335.0
130444.0
130857.0
131327.0
131539.0
131307.0
130751.0
130344.0
130791.0
132727.0
136375.0
141329.0
146552.0
150661.0
152389.0
151063.0
146890.0
140932.0
134746.0
129865.0
127281.0
127148.0
128830.0
131221.0
133210.0
134099.0
133790.0
132704.0
131511.0
130792.0
130795.0
131391.0
132190.0
132777.0
132913.0
132619.0
132127.0
131735.0
131641.0
131868.0
132272.0
132634.0
132788.0
132693.0
132442.0
132200.0
132109.0
132220.0
132477.0
132760.0
132955.0
133007.0
132936.0
132825.0
132763.0
132802.0
133107.0
133258.0
133342.0
133363.0
133358.0
133372.0
133447.0
133589.0
133784.0
134004.0
134222.0
134430.0
134643.0
134880.0
135155.0
135469.0
136466.0
136753.0
137010.0
137249.0
137488.0
137735.0
138340.0
138374.0
138262.0
137987.0
137550.0
136977.0
136308.0
135593.0
134881.0
134209.0
133601.0
133068.0
132617.0
132243.0
131938.0
131701.0
131526.0
131408.0
131347.0
131336.0
131372.0
131451.0
131571.0
131726.0
131902.0
132091.0
132276.0
132447.0
132600.0
132737.0
132863.0
132987.0
133117.0
133256.0
133398.0
133535.0
133657.0
133760.0
133845.0
133916.0
133978.0
134035.0
134173.0
134161.0
134132.0
134098.0
134065.0
134035.0
134007.0
133971.0
133923.0
133861.0
133784.0
133706.0
133639.0
133590.0
133563.0
133553.0
133552.0
133550.0
133550.0
133550.0
133553.0
133569.0
133594.0
133626.0
133654.0
133670.0
133671.0
133657.0
133640.0
133622.0
133612.0
133608.0
133607.0
133596.0
133579.0
133558.0
133544.0
133543.0
133558.0
133574.0
133575.0
133551.0
133505.0
133457.0
133440.0
133474.0
133566.0
133686.0
133791.0
133830.0
133786.0
133685.0
133598.0
133620.0
133810.0
134177.0
134650.0
135110.0
135430.0
135522.0
135371.0
135039.0
134622.0
134199.0
133796.0
133396.0
132957.0
132468.0
131981.0
131586.0
131382.0
131397.0
131489.0
131051.0
130611.0
130397.0
130542.0
130985.0
131476.0
131694.0
131446.0
130845.0
130369.0
130732.0
132581.0
136163.0
141091.0
146338.0
150505.0
152307.0
151033.0
146856.0
140812.0
134472.0
129400.0
126638.0
126397.0
128078.0
130582.0
132776.0
133908.0
133817.0
132882.0
131750.0
131013.0
130954.0
131482.0
132243.0
132837.0
133018.0
132786.0
132350.0
131985.0
131891.0
132096.0
132470.0
132808.0
132949.0
132853.0
132614.0
132383.0
132302.0
132416.0
132673.0
132952.0
133139.0
133170.0
133067.0
132918.0
133069.0
133212.0
133296.0
133322.0
133321.0
133346.0
133439.0
133614.0
133853.0
134123.0
134393.0
134643.0
134883.0
135129.0
135398.0
135696.0
136011.0
136321.0
136609.0
136858.0
137070.0
137256.0
137435.0
137620.0
137803.0
137960.0
138056.0
138053.0
137920.0
137640.0
137218.0
136677.0
136059.0
135406.0
134759.0
134143.0
133581.0
133077.0
132640.0
132273.0
131979.0
131763.0
131630.0
131572.0
131576.0
131626.0
131704.0
131796.0
131895.0
132001.0
132114.0
132241.0
132382.0
132533.0
132691.0
132850.0
133003.0
133151.0
133292.0
133427.0
133552.0
133662.0
133753.0
133827.0
133878.0
133914.0
133942.0
133969.0
134000.0
134032.0
134060.0
134077.0
134080.0
134066.0
134034.0
133986.0
133927.0
133860.0
133795.0
133736.0
133691.0
133664.0
133659.0
133667.0
133679.0
133684.0
133669.0
133629.0
133578.0
133527.0
133497.0
133495.0
133513.0
133536.0
133537.0
133501.0
133437.0
133367.0
133331.0
133354.0
133438.0
133555.0
133660.0
133708.0
133691.0
133642.0
133634.0
133744.0
134018.0
134438.0
134916.0
135332.0
135569.0
135571.0
135353.0
134991.0
134581.0
134187.0
133816.0
133428.0
132979.0
132469.0
131961.0
131562.0
131368.0
131392.0
131551.0
131682.0
131639.0
131358.0
130929.0
130548.0
130427.0
130654.0
131119.0
131549.0
131645.0
131288.0
130687.0
130388.0
131104.0
133393.0
137346.0
142396.0
147399.0
150958.0
151914.0
149786.0
144997.0
138766.0
132702.0
128261.0
126272.0
126710.0
128796.0
131373.0
133369.0
134181.0
133809.0
132734.0
131628.0
131027.0
131119.0
131734.0
132480.0
132977.0
133032.0
132705.0
132238.0
131905.0
131874.0
132136.0
132535.0
132870.0
132992.0
132886.0
132651.0
132440.0
132373.0
132483.0
132710.0
132946.0
133097.0
133125.0
133064.0
132983.0
132953.0
133003.0
133114.0
133237.0
133318.0
133343.0
133326.0
133319.0
133365.0
133491.0
133692.0
133938.0
134197.0
134447.0
134683.0
134924.0
135186.0
135482.0
135808.0
136146.0
136477.0
136784.0
137066.0
137333.0
137599.0
137866.0
138130.0
138360.0
138513.0
138547.0
138427.0
138142.0
137700.0
137126.0
136462.0
135752.0
135041.0
134360.0
133733.0
133171.0
132681.0
132265.0
131924.0
131661.0
131471.0
131348.0
131292.0
131290.0
131341.0
131430.0
131556.0
131712.0
131886.0
132074.0
132263.0
132444.0
132614.0
132771.0
132919.0
133327.0
133462.0
133590.0
133708.0
133814.0
133904.0
133979.0
134043.0
134094.0
134143.0
134186.0
134223.0
134254.0
134267.0
134260.0
134237.0
134196.0
134148.0
134096.0
134049.0
134007.0
133968.0
133925.0
133874.0
133812.0
133744.0
133680.0
133629.0
133595.0
133576.0
133568.0
133561.0
133549.0
133525.0
133495.0
133463.0
133447.0
133449.0
133470.0
133497.0
133519.0
133523.0
133507.0
133480.0
133456.0
133456.0
133482.0
133526.0
133573.0
133597.0
133811.0
134075.0
134444.0
134853.0
135205.0
135398.0
135377.0
135146.0
134773.0
134355.0
133972.0
133656.0
133374.0
133060.0
132669.0
132207.0
131758.0
131435.0
131330.0
131439.0
131655.0
131812.0
131757.0
131447.0
130988.0
130586.0
130448.0
130652.0
131083.0
131473.0
131552.0
131233.0
130755.0
130670.0
131649.0
134178.0
138255.0
143245.0
147990.0
151144.0
151655.0
149169.0
144220.0
138074.0
132310.0
128285.0
126696.0
127401.0
132024.0
133788.0
134346.0
133783.0
132632.0
131562.0
131060.0
131258.0
131937.0
132689.0
133145.0
132776.0
132297.0
131976.0
131959.0
132211.0
132562.0
132813.0
132839.0
132652.0
132368.0
132149.0
132790.0
132941.0
132961.0
132890.0
132813.0
132801.0
132887.0
133040.0
133205.0
133324.0
133374.0
133372.0
133365.0
133400.0
133504.0
133672.0
133877.0
134088.0
134288.0
134478.0
134678.0
134912.0
135197.0
135531.0
135895.0
136261.0
136609.0
136926.0
137215.0
137491.0
137762.0
138030.0
138279.0
138470.0
138562.0
138510.0
138291.0
137899.0
137353.0
136692.0
135969.0
135234.0
134529.0
133883.0
133305.0
132798.0
132360.0
131994.0
131705.0
131497.0
131375.0
131335.0
131364.0
131450.0
131572.0
131714.0
131867.0
132029.0
132194.0
132362.0
132531.0
132695.0
132851.0
132996.0
133131.0
133256.0
133373.0
133484.0
133590.0
133688.0
133776.0
133852.0
133920.0
133980.0
134034.0
134080.0
134113.0
134131.0
134130.0
134109.0
134072.0
134026.0
133984.0
133949.0
133929.0
133917.0
133907.0
133891.0
133860.0
133813.0
133756.0
133698.0
133654.0
133632.0
133632.0
133644.0
133657.0
133661.0
133648.0
133617.0
133582.0
133555.0
133552.0
133574.0
133612.0
133645.0
133648.0
133607.0
133531.0
133442.0
133377.0
133367.0
133420.0
133519.0
133623.0
133687.0
133690.0
133952.0
134342.0
134822.0
135280.0
135588.0
135663.0
135489.0
135129.0
134683.0
134245.0
133851.0
133481.0
133087.0
132632.0
132142.0
131699.0
131408.0
131334.0
131451.0
131636.0
131721.0
131588.0
131243.0
130826.0
130546.0
130572.0
130907.0
131371.0
131666.0
131563.0
131080.0
130580.0
130694.0
132082.0
135100.0
139544.0
144575.0
148919.0
151274.0
150791.0
147418.0
141966.0
135864.0
130666.0
127525.0
126844.0
128193.0
130577.0
132853.0
134178.0
134263.0
133386.0
132170.0
131247.0
130990.0
131391.0
132140.0
132540.0
132096.0
131877.0
131967.0
132280.0
132630.0
132839.0
132828.0
132646.0
132429.0
132313.0
132367.0
132571.0
132829.0
133033.0
133120.0
133095.0
133023.0
132985.0
133028.0
133152.0
133311.0
133475.0
133527.0
133650.0
133825.0
134020.0
134206.0
134380.0
134558.0
134766.0
135024.0
135338.0
135691.0
136055.0
136403.0
136718.0
137003.0
137267.0
137534.0
137808.0
138078.0
138309.0
138462.0
138493.0
138377.0
137093.0
136440.0
135741.0
135028.0
134334.0
133683.0
133092.0
132576.0
132143.0
131803.0
131557.0
131405.0
131338.0
131345.0
131412.0
131530.0
131686.0
131867.0
132063.0
132258.0
132445.0
132617.0
132767.0
132900.0
133020.0
133133.0
133246.0
133361.0
133472.0
133577.0
133670.0
133750.0
133817.0
133871.0
133918.0
133958.0
133992.0
134017.0
134027.0
134022.0
134004.0
133979.0
133952.0
133928.0
133910.0
133896.0
133884.0
133863.0
133833.0
133792.0
133743.0
133696.0
133659.0
133635.0
133626.0
133622.0
133617.0
133527.0
133510.0
133511.0
133526.0
133541.0
133541.0
133518.0
133473.0
133427.0
133406.0
133435.0
133518.0
133630.0
133755.0
133688.0
133639.0
133687.0
133893.0
134263.0
134735.0
135197.0
135523.0
135628.0
135496.0
135181.0
134778.0
133581.0
133149.0
132656.0
132135.0
131682.0
131410.0
131372.0
131528.0
131730.0
131803.0
131628.0
131221.0
130745.0
130433.0
130464.0
130839.0
131357.0
131694.0
131595.0
131078.0
130521.0
130590.0
131986.0
135095.0
139714.0
144980.0
149561.0
152093.0
151667.0
148202.0
142522.0
136095.0
130543.0
127091.0
126193.0
127454.0
129872.0
133767.0
134024.0
133286.0
132161.0
131280.0
131031.0
131422.0
132159.0
132833.0
133139.0
133006.0
132587.0
132158.0
131956.0
132059.0
132387.0
132748.0
132966.0
132962.0
132781.0
132560.0
132436.0
132482.0
132676.0
132921.0
133105.0
133161.0
133096.0
132980.0
132898.0
132911.0
133026.0
133202.0
133378.0
133505.0
133574.0
133610.0
133663.0
133775.0
133960.0
134206.0
134483.0
134762.0
135029.0
135284.0
135537.0
135802.0
136075.0
136343.0
136584.0
136784.0
136935.0
137055.0
137165.0
137294.0
137454.0
137640.0
137817.0
137942.0
137850.0
137576.0
137150.0
136600.0
135972.0
135308.0
134653.0
134036.0
133478.0
132983.0
132556.0
132197.0
131912.0
131702.0
131566.0
131499.0
131491.0
131534.0
131616.0
131725.0
131855.0
132002.0
132164.0
132338.0
132519.0
132699.0
132873.0
133034.0
133177.0
133299.0
133405.0
133496.0
133579.0
133657.0
133732.0
133801.0
133859.0
133903.0
133931.0
133947.0
133954.0
133959.0
133962.0
133961.0
133949.0
133916.0
133854.0
133770.0
133678.0
133602.0
133558.0
133546.0
133554.0
133558.0
133529.0
133461.0
133368.0
133288.0
133258.0
133301.0
133408.0
133539.0
133644.0
133689.0
133675.0
133656.0
133710.0
133906.0
134265.0
134743.0
135238.0
135626.0
135818.0
135785.0
135557.0
135211.0
134810.0
134384.0
133402.0
132826.0
132254.0
131789.0
131527.0
131497.0
131629.0
131770.0
131757.0
131501.0
131061.0
130616.0
130390.0
130516.0
130937.0
131408.0
131616.0
131367.0
130775.0
130307.0
130663.0
132477.0
135994.0
140833.0
145980.0
150066.0
151814.0
150523.0
146361.0
140355.0
134062.0
129037.0
126323.0
126141.0
127902.0
130510.0
132823.0
134073.0
131273.0
131147.0
131618.0
132351.0
132956.0
133179.0
132607.0
132263.0
132162.0
132341.0
132681.0
132992.0
133126.0
133038.0
132809.0
132586.0
132500.0
132599.0
132839.0
133107.0
133291.0
133338.0
133264.0
133145.0
133064.0
133078.0
133186.0
133343.0
133490.0
133583.0
133618.0
133624.0
133646.0
133721.0
133858.0
134049.0
134270.0
134505.0
134744.0
134994.0
135263.0
135555.0
135864.0
136172.0
136455.0
136708.0
136929.0
137130.0
137333.0
137545.0
137760.0
137957.0
138097.0
137808.0
137422.0
136910.0
136304.0
135640.0
134960.0
134298.0
133681.0
133133.0
132664.0
132280.0
131983.0
131768.0
131627.0
131547.0
131518.0
131808.0
131966.0
132148.0
132342.0
132539.0
132725.0
132894.0
133047.0
133187.0
133323.0
133458.0
133594.0
133729.0
133857.0
133972.0
134066.0
134139.0
134192.0
134233.0
134264.0
134286.0
134298.0
134297.0
134277.0
134241.0
134190.0
134132.0
134076.0
134024.0
133978.0
133930.0
133876.0
133634.0
133556.0
133505.0
133484.0
133484.0
133484.0
133461.0
133398.0
133303.0
133200.0
133128.0
133117.0
133177.0
133289.0
133418.0
133527.0
133599.0
133751.0
133939.0
134256.0
134678.0
135142.0
135548.0
135811.0
135880.0
135759.0
135492.0
135129.0
134699.0
134204.0
133627.0
132980.0
132318.0
131746.0
131374.0
131258.0
131360.0
131543.0
131632.0
131494.0
131126.0
130661.0
130322.0
130289.0
130593.0
131062.0
131406.0
131376.0
130960.0
130484.0
130562.0
131857.0
148708.0
151291.0
151054.0
147859.0
142455.0
136252.0
130831.0
127429.0
126539.0
127800.0
130235.0
132669.0
134190.0
134433.0
133631.0
132391.0
131379.0
131019.0
131352.0
132091.0
133080.0
132667.0
132209.0
131954.0
132013.0
132318.0
132682.0
132921.0
132936.0
132764.0
132533.0
132390.0
132421.0
132610.0
132871.0
133090.0
133196.0
133188.0
133124.0
133085.0
133128.0
133255.0
133427.0
133574.0
133651.0
133654.0
133617.0
133594.0
133632.0
133744.0
133921.0
134125.0
134330.0
134522.0
134707.0
134910.0
135148.0
135428.0
135736.0
136046.0
136342.0
136610.0
136856.0
137097.0
137347.0
137614.0
137885.0
138122.0
138277.0
138305.0
138178.0
137881.0
137433.0
136864.0
136214.0
135532.0
134857.0
134218.0
133634.0
133114.0
132667.0
132296.0
132009.0
131805.0
131684.0
131638.0
131655.0
131725.0
131832.0
131965.0
132114.0
132277.0
132448.0
132622.0
132792.0
132953.0
133101.0
133236.0
133358.0
133470.0
133578.0
133682.0
133779.0
133863.0
133928.0
133973.0
134000.0
134013.0
134023.0
134038.0
134056.0
134076.0
134092.0
134096.0
134083.0
134056.0
134024.0
133991.0
133958.0
133925.0
133885.0
133834.0
133766.0
133686.0
133608.0
133549.0
133521.0
133520.0
133528.0
133514.0
133461.0
133365.0
133248.0
133149.0
133106.0
133142.0
133251.0
133392.0
133610.0
133629.0
133717.0
133940.0
134319.0
134813.0
135329.0
135751.0
135987.0
136005.0
135825.0
135511.0
135121.0
134677.0
134168.0
133577.0
132916.0
132255.0
131708.0
131389.0
131340.0
131500.0
131712.0
131791.0
131622.0
131232.0
130782.0
130505.0
130558.0
130927.0
131401.0
131678.0
131541.0
131046.0
130597.0
130849.0
132442.0
135676.0
140253.0
145253.0
149364.0
151322.0
150372.0
146592.0
140914.0
134823.0
129861.0
127092.0
126789.0
128415.0
130907.0
133134.0
134310.0
134234.0
131037.0
131525.0
132306.0
132959.0
133196.0
132987.0
132516.0
132072.0
131883.0
132016.0
132363.0
132727.0
132932.0
132908.0
132724.0
132512.0
132415.0
132494.0
132718.0
132987.0
133189.0
133264.0
133222.0
133133.0
133080.0
133121.0
133256.0
133439.0
133610.0
133725.0
133773.0
133782.0
133793.0
133843.0
133952.0
134109.0
134297.0
134494.0
134693.0
134898.0
135122.0
135368.0
135636.0
135913.0
136452.0
136701.0
136943.0
137190.0
137447.0
138132.0
138218.0
138171.0
137971.0
137616.0
137123.0
136529.0
135875.0
135207.0
134563.0
133967.0
133433.0
132966.0
131715.0
131700.0
131752.0
132261.0
132399.0
132536.0
132678.0
132827.0
132979.0
133128.0
133265.0
133379.0
133473.0
133550.0
133619.0
133687.0
133762.0
133844.0
133927.0
134002.0
134062.0
134102.0
134127.0
134138.0
134141.0
134138.0
134129.0
134107.0
134072.0
134019.0
133953.0
133883.0
133818.0
133763.0
133721.0
133687.0
133649.0
133605.0
133552.0
133502.0
133469.0
133468.0
133501.0
133552.0
133592.0
133595.0
133545.0
133454.0
133357.0
133293.0
133297.0
133371.0
133491.0
133606.0
133676.0
133689.0
133683.0
133725.0
133891.0
134217.0
134681.0
135201.0
135658.0
135955.0
136035.0
135908.0
135627.0
135256.0
134826.0
134332.0
133752.0
133093.0
132414.0
131827.0
131450.0
131344.0
131467.0
131670.0
131766.0
131616.0
131221.0
130736.0
130395.0
130382.0
130717.0
131201.0
131523.0
131422.0
130901.0
130322.0
130346.0
131674.0
134704.0
139252.0
144466.0
149027.0
151575.0
151202.0
147828.0
142272.0
136002.0
130629.0
127365.0
126636.0
128018.0
130483.0
132851.0
134241.0
134352.0
133461.0
132206.0
131245.0
130963.0
131363.0
132125.0
132827.0
133153.0
133033.0
132628.0
132219.0
132039.0
132165.0
132505.0
132866.0
133066.0
133029.0
132815.0
132570.0
132442.0
132504.0
132725.0
133000.0
133209.0
133282.0
133223.0
133100.0
133007.0
133004.0
133105.0
133265.0
133421.0
133527.0
133573.0
133592.0
133629.0
133725.0
133894.0
134124.0
134383.0
134639.0
134873.0
135090.0
135303.0
135528.0
135773.0
136024.0
136270.0
136500.0
136706.0
136890.0
137067.0
137247.0
137435.0
137620.0
137775.0
137862.0
137846.0
137701.0
137419.0
137001.0
136474.0
135876.0
135248.0
134632.0
134059.0
133545.0
133098.0
132722.0
132411.0
132164.0
131984.0
131867.0
131820.0
131836.0
131909.0
132023.0
132162.0
132310.0
132456.0
132592.0
132715.0
132829.0
132939.0
133048.0
133161.0
133277.0
133394.0
133511.0
133623.0
133729.0
133822.0
133899.0
133959.0
133999.0
134024.0
134037.0
134047.0
134060.0
134076.0
134090.0
134091.0
134072.0
134024.0
133952.0
133866.0
133787.0
133730.0
133700.0
133686.0
133665.0
133618.0
133533.0
133425.0
133323.0
133266.0
133275.0
133347.0
133450.0
133541.0
133586.0
133583.0
133576.0
133642.0
134719.0
135258.0
135716.0
135993.0
136043.0
135886.0
135584.0
135206.0
134782.0
134304.0
133744.0
133099.0
132426.0
131831.0
131437.0
131308.0
131413.0
131612.0
131721.0
131609.0
131263.0
130829.0
130527.0
130537.0
130878.0
131364.0
131692.0
131605.0
131098.0
130520.0
130513.0
131765.0
134695.0
139148.0
144312.0
148897.0
151539.0
151299.0
148027.0
142474.0
136066.0
130426.0
126829.0
129512.0
132100.0
133836.0
134315.0
133713.0
132604.0
131636.0
131244.0
131497.0
132149.0
132806.0
133154.0
133084.0
132723.0
132323.0
132116.0
132211.0
132540.0
132928.0
133190.0
133230.0
133076.0
132849.0
132691.0
133089.0
133300.0
133411.0
133406.0
133337.0
133273.0
133273.0
133352.0
133479.0
133602.0
133686.0
133722.0
133736.0
133771.0
133863.0
134026.0
134245.0
134491.0
134733.0
134956.0
135164.0
135371.0
135595.0
135841.0
136097.0
136348.0
136575.0
136773.0
136946.0
137104.0
137266.0
137435.0
137603.0
137741.0
137806.0
137762.0
137579.0
137253.0
136794.0
136233.0
135610.0
134975.0
134365.0
133806.0
133315.0
132899.0
132558.0
132288.0
132087.0
131951.0
131876.0
131858.0
131889.0
131961.0
132062.0
132725.0
132872.0
133023.0
133175.0
133468.0
133599.0
133712.0
133811.0
133894.0
133965.0
134030.0
134087.0
134136.0
134173.0
134193.0
134199.0
134187.0
134170.0
134145.0
134116.0
134076.0
134022.0
133949.0
133852.0
133738.0
133625.0
133533.0
133478.0
133458.0
133456.0
133447.0
133407.0
133329.0
133230.0
133145.0
133109.0
133151.0
133266.0
133420.0
133567.0
133669.0
133728.0
133785.0
133905.0
134146.0
134525.0
135006.0
135496.0
135885.0
136088.0
136076.0
135877.0
135555.0
135164.0
134726.0
134229.0
133652.0
133006.0
132359.0
131827.0
131516.0
131468.0
131619.0
131804.0
131844.0
131631.0
131200.0
130729.0
130454.0
130530.0
130930.0
131427.0
131697.0
131514.0
130944.0
130414.0
130611.0
132207.0
135509.0
140214.0
145369.0
149614.0
151640.0
150663.0
146769.0
140917.0
134649.0
129550.0
126724.0
126451.0
128177.0
130805.0
133159.0
134429.0
134400.0
133428.0
132185.0
131311.0
131140.0
131618.0
132397.0
133050.0
133290.0
133082.0
132619.0
132189.0
132020.0
132169.0
132525.0
132881.0
133059.0
132997.0
132766.0
132516.0
132393.0
132460.0
132689.0
132969.0
133186.0
133273.0
133245.0
133173.0
133141.0
133204.0
133357.0
133849.0
133836.0
133840.0
133900.0
134037.0
134235.0
134466.0
134698.0
134918.0
135128.0
135340.0
135567.0
135813.0
136074.0
136336.0
136587.0
136820.0
137039.0
137256.0
137474.0
137692.0
137889.0
138034.0
138087.0
138020.0
137808.0
137448.0
136956.0
136360.0
135705.0
135033.0
134383.0
133786.0
133261.0
132819.0
132461.0
132186.0
131989.0
131865.0
131806.0
131803.0
131845.0
131920.0
132023.0
132145.0
132280.0
132424.0
132572.0
132723.0
132874.0
133020.0
133160.0
133291.0
133412.0
133521.0
133617.0
133699.0
133763.0
133822.0
133874.0
133925.0
133977.0
134026.0
134070.0
134100.0
134114.0
134114.0
134103.0
134089.0
134078.0
134067.0
134051.0
134022.0
133971.0
133897.0
133809.0
133724.0
133660.0
133623.0
133605.0
133588.0
133544.0
133466.0
133360.0
133254.0
133185.0
133181.0
133243.0
133348.0
133455.0
133531.0
133701.0
133924.0
134299.0
134793.0
135316.0
135753.0
136009.0
135857.0
135534.0
135135.0
134699.0
134220.0
133673.0
133054.0
132409.0
131844.0
131474.0
131362.0
131473.0
131672.0
131772.0
131640.0
131267.0
130794.0
130453.0
130427.0
130748.0
131235.0
131580.0
131522.0
131042.0
130478.0
130471.0
131716.0
134634.0
139082.0
144252.0
148856.0
151529.0
151331.0
148124.0
142672.0
136405.0
130941.0
127529.0
126655.0
127944.0
130391.0
132813.0
134287.0
134472.0
133611.0
132336.0
131321.0
130983.0
131349.0
132113.0
132838.0
133188.0
133067.0
132632.0
132171.0
131936.0
132032.0
132377.0
132773.0
133022.0
133029.0
132834.0
132577.0
132417.0
132443.0
133138.0
133246.0
133230.0
133150.0
133097.0
133759.0
133803.0
133800.0
133801.0
133849.0
133964.0
134888.0
135085.0
135317.0
135888.0
136191.0
136475.0
136735.0
136974.0
137204.0
137444.0
137691.0
137931.0
138124.0
138225.0
138193.0
138008.0
137663.0
137178.0
136585.0
135922.0
135235.0
134557.0
133919.0
133342.0
132839.0
132424.0
132103.0
131878.0
131744.0
131690.0
131700.0
131944.0
132064.0
132199.0
132349.0
132518.0
132697.0
132882.0
133060.0
133220.0
133359.0
133470.0
133559.0
133632.0
133703.0
133778.0
133862.0
133955.0
134049.0
134132.0
134197.0
134233.0
134245.0
134238.0
134220.0
134201.0
134183.0
134160.0
134128.0
134076.0
134005.0
133922.0
133841.0
133780.0
133743.0
133733.0
133738.0
133738.0
133718.0
133675.0
133618.0
133570.0
133548.0
133561.0
133598.0
133633.0
133637.0
133598.0
133527.0
133454.0
133418.0
133445.0
133532.0
133648.0
133746.0
133797.0
133799.0
133800.0
133872.0
134079.0
134444.0
134923.0
135422.0
135829.0
136051.0
136056.0
135864.0
135535.0
135123.0
134652.0
134116.0
133502.0
132832.0
132187.0
131675.0
131379.0
131536.0
131703.0
131710.0
131469.0
131037.0
130606.0
130403.0
130558.0
131733.0
131486.0
130889.0
130413.0
130764.0
132577.0
136087.0
140898.0
145984.0
149978.0
151628.0
150273.0
146125.0
140245.0
134187.0
129470.0
127064.0
127111.0
128954.0
131471.0
133548.0
134485.0
134191.0
133099.0
131889.0
131153.0
131151.0
131752.0
132568.0
133179.0
133333.0
133048.0
132551.0
132142.0
132023.0
132221.0
132599.0
132943.0
133084.0
132981.0
132721.0
132463.0
132346.0
132424.0
132650.0
132914.0
133112.0
133190.0
133174.0
133133.0
133141.0
133234.0
133398.0
133579.0
133718.0
133791.0
133811.0
133826.0
133882.0
134004.0
134182.0
134383.0
134564.0
134705.0
134812.0
134917.0
135059.0
135266.0
135537.0
135849.0
136164.0
136447.0
136688.0
136890.0
137077.0
137274.0
137494.0
137724.0
137926.0
138048.0
138042.0
137879.0
137549.0
137073.0
136483.0
135830.0
135162.0
134517.0
133924.0
133395.0
132936.0
132553.0
132249.0
132024.0
131877.0
131804.0
131793.0
131836.0
131917.0
132025.0
132151.0
132287.0
132436.0
132594.0
132759.0
132928.0
133099.0
133263.0
133419.0
133556.0
133674.0
133770.0
133850.0
133915.0
133971.0
134023.0
134069.0
134108.0
134137.0
134151.0
134151.0
134140.0
134124.0
134110.0
134099.0
134088.0
134071.0
134041.0
133993.0
133927.0
133852.0
133781.0
133717.0
133667.0
133628.0
133588.0
133546.0
133498.0
133452.0
133428.0
133431.0
133460.0
133501.0
133525.0
133512.0
133457.0
133379.0
133316.0
133304.0
133365.0
133482.0
133619.0
133725.0
133771.0
133766.0
133763.0
133841.0
134067.0
134451.0
134946.0
135450.0
135849.0
136060.0
136058.0
135871.0
135562.0
135174.0
134722.0
134186.0
133548.0
132841.0
132155.0
131625.0
131359.0
131377.0
131584.0
131797.0
131828.0
131579.0
131122.0
130664.0
130448.0
130617.0
131097.0
131619.0
131839.0
131557.0
130904.0
130379.0
130717.0
132580.0
136202.0
141157.0
146377.0
150440.0
152059.0
150565.0
146199.0
140066.0
133776.0
128898.0
126423.0
126495.0
128433.0
131090.0
133316.0
134385.0
134190.0
133161.0
131981.0
131245.0
131224.0
131796.0
132583.0
133171.0
133314.0
133027.0
132536.0
132135.0
132643.0
133018.0
133198.0
133137.0
132914.0
132685.0
132590.0
132686.0
132932.0
133217.0
133437.0
133526.0
133496.0
133407.0
133336.0
133333.0
133404.0
133520.0
133634.0
133719.0
133780.0
133841.0
133930.0
134070.0
134893.0
135086.0
135280.0
135486.0
135713.0
135953.0
136193.0
136417.0
136610.0
137061.0
137205.0
137355.0
137500.0
137608.0
137648.0
137584.0
137086.0
136651.0
136122.0
135538.0
134943.0
134376.0
133865.0
133417.0
133037.0
132716.0
132450.0
132237.0
132078.0
131982.0
131949.0
131979.0
132062.0
132179.0
132314.0
132451.0
132580.0
132697.0
132808.0
132916.0
133026.0
133145.0
133270.0
133662.0
133784.0
133890.0
133977.0
134039.0
134080.0
134209.0
134230.0
134225.0
134185.0
134102.0
133702.0
133714.0
133723.0
133704.0
133642.0
133553.0
133470.0
133430.0
133457.0
133773.0
133836.0
133858.0
133878.0
133965.0
134175.0
134527.0
134980.0
135446.0
135818.0
136013.0
136004.0
135816.0
135504.0
135118.0
134680.0
134175.0
133589.0
132937.0
132295.0
131780.0
131502.0
131495.0
131686.0
131907.0
131970.0
131770.0
131338.0
130865.0
130584.0
130666.0
131082.0
131603.0
131890.0
131702.0
131077.0
130434.0
130461.0
131854.0
134967.0
139552.0
144704.0
149085.0
151359.0
150686.0
147060.0
141369.0
135100.0
129843.0
126755.0
126204.0
127725.0
130285.0
132716.0
134170.0
134368.0
133593.0
132461.0
131598.0
131364.0
131748.0
132447.0
133061.0
133304.0
133126.0
132700.0
132297.0
132140.0
132294.0
132660.0
133040.0
133261.0
133249.0
133059.0
132837.0
132724.0
132790.0
133011.0
133284.0
133496.0
133578.0
133535.0
133432.0
133353.0
133361.0
133462.0
133618.0
133771.0
133874.0
133915.0
133925.0
133944.0
134014.0
134150.0
134342.0
134564.0
134794.0
135016.0
135234.0
135456.0
135690.0
135936.0
136185.0
136420.0
136634.0
136830.0
137017.0
137210.0
137418.0
137632.0
137828.0
137967.0
138004.0
137908.0
137663.0
137275.0
136770.0
136182.0
135548.0
134906.0
134284.0
133704.0
133181.0
132728.0
132353.0
132064.0
131866.0
131755.0
131720.0
131743.0
131808.0
131898.0
132005.0
132122.0
132252.0
132396.0
132556.0
132729.0
132909.0
133088.0
133260.0
133417.0
133559.0
133686.0
133797.0
133898.0
133989.0
134070.0
134144.0
134210.0
134269.0
134321.0
134365.0
134396.0
134414.0
134415.0
134341.0
134291.0
134233.0
134167.0
134103.0
134040.0
133984.0
133935.0
133889.0
133845.0
133793.0
133730.0
133660.0
133598.0
133557.0
133543.0
133558.0
133580.0
133588.0
133561.0
133494.0
133402.0
133322.0
133290.0
133331.0
133436.0
133574.0
133700.0
133788.0
133839.0
133892.0
134012.0
134252.0
134621.0
135072.0
135522.0
135864.0
136026.0
135989.0
135784.0
135470.0
135092.0
134663.0
134166.0
132945.0
132317.0
131818.0
131548.0
131526.0
131672.0
131825.0
131813.0
131564.0
131137.0
130719.0
130524.0
130667.0
131080.0
131516.0
131676.0
131410.0
130865.0
130535.0
131102.0
133144.0
136819.0
141655.0
146598.0
150289.0
151549.0
149816.0
145404.0
139437.0
133475.0
128987.0
126857.0
127136.0
129109.0
131647.0
133662.0
134507.0
134147.0
133044.0
131876.0
131208.0
131262.0
131883.0
132681.0
133249.0
133363.0
133060.0
132576.0
132197.0
132113.0
132332.0
132705.0
133024.0
133138.0
133016.0
132760.0
132525.0
132447.0
132567.0
132830.0
133121.0
133330.0
133406.0
133373.0
133303.0
133275.0
133331.0
133462.0
133624.0
133763.0
133845.0
133877.0
133886.0
134132.0
134296.0
134473.0
134649.0
134824.0
135951.0
136199.0
136434.0
136665.0
136900.0
138106.0
138163.0
138085.0
137004.0
136424.0
135793.0
135142.0
134508.0
133919.0
133395.0
132948.0
132583.0
132297.0
132086.0
131942.0
131855.0
131821.0
131834.0
131890.0
131988.0
132119.0
132276.0
132449.0
132627.0
132804.0
132973.0
133130.0
133279.0
133421.0
133558.0
133686.0
133805.0
133906.0
133992.0
134060.0
134114.0
134158.0
134201.0
134341.0
134372.0
134381.0
134362.0
134321.0
134262.0
134199.0
134141.0
134097.0
134063.0
134029.0
133988.0
133933.0
133868.0
133802.0
133744.0
133705.0
133686.0
133678.0
133674.0
133658.0
133627.0
133587.0
133560.0
133560.0
133590.0
133634.0
133669.0
133666.0
133620.0
133541.0
133463.0
133430.0
133469.0
133574.0
133708.0
133821.0
133872.0
133861.0
133838.0
133880.0
134062.0
134414.0
134896.0
135405.0
135812.0
136012.0
135967.0
135715.0
135335.0
134912.0
134483.0
134042.0
133555.0
133000.0
132421.0
131912.0
131589.0
131513.0
131647.0
131850.0
131946.0
131805.0
131431.0
130978.0
130672.0
131525.0
131846.0
131752.0
131259.0
130732.0
130820.0
132186.0
135196.0
139629.0
144634.0
148920.0
151188.0
150603.0
147145.0
141662.0
135604.0
130521.0
127538.0
127006.0
128460.0
130874.0
133113.0
134359.0
134370.0
133459.0
132261.0
131400.0
132443.0
133098.0
133353.0
133165.0
132715.0
132291.0
132124.0
132272.0
132629.0
132993.0
132919.0
132674.0
132551.0
132618.0
132841.0
133119.0
133330.0
133409.0
133366.0
133270.0
133212.0
133247.0
133375.0
133558.0
133730.0
133848.0
133903.0
134007.0
134121.0
134273.0
134437.0
134595.0
134746.0
134906.0
135090.0
135312.0
135571.0
135848.0
136122.0
136374.0
136599.0
136807.0
137017.0
137737.0
137950.0
138085.0
138101.0
137974.0
137691.0
137266.0
136726.0
136111.0
134223.0
133680.0
133207.0
132805.0
132477.0
132218.0
132030.0
131912.0
131861.0
131871.0
131937.0
132045.0
132181.0
132327.0
132467.0
132594.0
132709.0
132817.0
132930.0
133059.0
133212.0
133387.0
133572.0
133749.0
133902.0
134018.0
134099.0
134153.0
134195.0
134235.0
134283.0
134336.0
134385.0
134417.0
134421.0
134400.0
134358.0
134308.0
134261.0
134219.0
134184.0
134150.0
134105.0
134047.0
133974.0
133897.0
133824.0
133766.0
133726.0
133700.0
133683.0
133672.0
133657.0
133641.0
133624.0
133614.0
133616.0
133630.0
133660.0
133697.0
133735.0
133765.0
133784.0
133792.0
133797.0
133804.0
133819.0
133839.0
133860.0
133876.0
133885.0
133886.0
133888.0
133892.0
133902.0
133915.0
133936.0
133970.0
134036.0
134157.0
134356.0
134631.0
134949.0
135238.0
135417.0
135421.0
135230.0
134882.0
134465.0
134075.0
133770.0
133546.0
131889.0
131653.0
131651.0
131849.0
132105.0
132081.0
131665.0
131141.0
130760.0
130730.0
131082.0
131620.0
132010.0
131956.0
131419.0
130741.0
130582.0
131684.0
134513.0
138961.0
144228.0
149002.0
151878.0
151859.0
148767.0
143345.0
137031.0
131466.0
127928.0
126936.0
128131.0
130518.0
132902.0
134358.0
134528.0
133660.0
132381.0
131358.0
131010.0
131360.0
132100.0
132797.0
133118.0
132975.0
132532.0
132076.0
131864.0
131993.0
132376.0
132809.0
133094.0
133136.0
132976.0
132754.0
132622.0
132668.0
132873.0
133137.0
133349.0
133430.0
133384.0
133276.0
133190.0
133187.0
133271.0
133399.0
133506.0
133554.0
133544.0
133517.0
133534.0
133639.0
133837.0
134099.0
134375.0
134617.0
134806.0
134956.0
135098.0
135276.0
135510.0
135799.0
136115.0
136420.0
136683.0
136893.0
137057.0
137201.0
137349.0
137515.0
137688.0
137834.0
137905.0
137854.0
137650.0
137286.0
136785.0
136187.0
135548.0
134917.0
134334.0
133812.0
133356.0
132964.0
132637.0
132378.0
132193.0
132091.0
132071.0
132117.0
132210.0
132324.0
132436.0
132536.0
132627.0
132720.0
132826.0
132951.0
133097.0
133534.0
133642.0
133729.0
133802.0
133872.0
133943.0
134014.0
134078.0
134124.0
134117.0
134078.0
134039.0
134006.0
133981.0
133958.0
133934.0
133907.0
133877.0
133848.0
133826.0
133819.0
133825.0
133841.0
133857.0
133862.0
133857.0
133841.0
133827.0
133820.0
133821.0
133826.0
133829.0
133821.0
133804.0
133784.0
133772.0
133778.0
133800.0
133833.0
133868.0
133905.0
133962.0
134071.0
134264.0
134543.0
134880.0
135199.0
135410.0
135431.0
135235.0
134391.0
133939.0
133573.0
133303.0
133082.0
132837.0
132532.0
132188.0
131888.0
131734.0
131770.0
131954.0
132149.0
132194.0
131995.0
131588.0
131149.0
130906.0
131015.0
131453.0
131996.0
132314.0
132169.0
131594.0
130995.0
131045.0
132436.0
135527.0
140083.0
145220.0
149610.0
151921.0
151291.0
147689.0
141964.0
135591.0
130162.0
126863.0
126107.0
127477.0
129969.0
132429.0
133987.0
134321.0
133668.0
132612.0
131768.0
131502.0
131833.0
132482.0
133079.0
133340.0
133207.0
132828.0
132457.0
132300.0
132431.0
132755.0
133097.0
133286.0
133259.0
133066.0
132839.0
132711.0
132751.0
132939.0
133182.0
133381.0
133468.0
133443.0
133368.0
133312.0
133331.0
133708.0
133811.0
133868.0
133906.0
133959.0
134061.0
134217.0
134416.0
134634.0
134852.0
135060.0
135265.0
135475.0
135695.0
135924.0
136154.0
136375.0
136578.0
136765.0
136945.0
137126.0
137314.0
137502.0
137668.0
137787.0
137829.0
137767.0
137587.0
137281.0
136857.0
136333.0
135741.0
135115.0
134489.0
133897.0
133365.0
132910.0
132535.0
132239.0
132017.0
131863.0
131771.0
131737.0
131756.0
131821.0
131926.0
132061.0
132219.0
132388.0
132569.0
132755.0
132949.0
133143.0
133335.0
133519.0
133689.0
133840.0
133971.0
134080.0
134174.0
134254.0
134325.0
134385.0
134434.0
134472.0
134499.0
134515.0
134520.0
134515.0
134403.0
134331.0
134245.0
134154.0
134069.0
134001.0
133948.0
133909.0
133878.0
133849.0
133816.0
133778.0
133742.0
133717.0
133701.0
133695.0
133694.0
133696.0
133696.0
133695.0
133691.0
133686.0
133678.0
133666.0
133653.0
133641.0
133630.0
133625.0
133627.0
133644.0
133681.0
133751.0
133873.0
134063.0
134330.0
134657.0
134995.0
135276.0
135422.0
135388.0
135173.0
134832.0
134449.0
134110.0
133855.0
133661.0
131976.0
131764.0
131778.0
131969.0
132079.0
131668.0
131202.0
130912.0
130963.0
131338.0
131817.0
132084.0
131907.0
131329.0
130757.0
130867.0
132332.0
135492.0
140089.0
145215.0
149539.0
151740.0
151005.0
147351.0
141676.0
135476.0
130328.0
127359.0
126902.0
128455.0
130962.0
133262.0
134532.0
134534.0
133596.0
132370.0
131490.0
131300.0
131756.0
132517.0
133158.0
133387.0
133169.0
132695.0
132259.0
132091.0
132255.0
132637.0
133249.0
133223.0
133015.0
132779.0
132663.0
133255.0
133474.0
133556.0
133513.0
133414.0
133343.0
133359.0
133468.0
133620.0
133754.0
133829.0
133840.0
133820.0
133818.0
133873.0
133997.0
134174.0
134375.0
134575.0
134761.0
134939.0
135126.0
135337.0
135571.0
135822.0
136076.0
136320.0
136555.0
136786.0
137020.0
137270.0
137531.0
137781.0
137990.0
138118.0
138132.0
138009.0
137745.0
137346.0
136833.0
136237.0
135600.0
134960.0
134346.0
132872.0
132535.0
132277.0
132094.0
131983.0
132329.0
132461.0
132598.0
132986.0
133100.0
133206.0
133299.0
133387.0
133474.0
133565.0
133662.0
133764.0
133866.0
133962.0
134045.0
134108.0
134154.0
134183.0
134205.0
134224.0
134244.0
134263.0
134277.0
134279.0
134264.0
134231.0
134182.0
134123.0
134067.0
134019.0
133984.0
133957.0
133932.0
133906.0
133873.0
133838.0
133799.0
133760.0
133724.0
133693.0
133670.0
133651.0
133638.0
133625.0
133612.0
133600.0
133594.0
133599.0
133622.0
133663.0
133717.0
133773.0
133823.0
133873.0
133938.0
134051.0
134245.0
134534.0
134898.0
135281.0
135586.0
135728.0
135653.0
135373.0
134955.0
134503.0
134105.0
133796.0
132950.0
132526.0
132085.0
131742.0
131600.0
131681.0
131897.0
132078.0
132061.0
131782.0
131322.0
130892.0
130718.0
130914.0
131389.0
131873.0
132044.0
131742.0
131131.0
130728.0
131246.0
133283.0
136993.0
141887.0
146873.0
150573.0
151795.0
149990.0
145506.0
139498.0
133543.0
129111.0
127060.0
127409.0
129408.0
131913.0
133847.0
134591.0
134142.0
132988.0
131817.0
131183.0
131282.0
131940.0
132748.0
133301.0
133388.0
133061.0
132570.0
132206.0
132149.0
132397.0
132795.0
133128.0
133249.0
133135.0
132890.0
132676.0
132619.0
132756.0
133019.0
133440.0
133346.0
133306.0
133361.0
133498.0
133666.0
133808.0
133891.0
133922.0
133936.0
133975.0
134064.0
134202.0
134374.0
134552.0
134725.0
134895.0
135074.0
135278.0
135512.0
135773.0
136042.0
136302.0
136544.0
136770.0
136991.0
137222.0
137466.0
137713.0
137939.0
138106.0
138174.0
138114.0
137910.0
137566.0
137094.0
136525.0
135894.0
135239.0
134601.0
134007.0
133479.0
133026.0
132654.0
132366.0
132156.0
132014.0
131935.0
131908.0
131922.0
131975.0
132056.0
132164.0
132290.0
132433.0
132586.0
132740.0
132889.0
133028.0
133156.0
133273.0
133381.0
133487.0
133593.0
133704.0
133820.0
133937.0
134047.0
134146.0
134226.0
134286.0
134324.0
134335.0
134323.0
134303.0
134268.0
134215.0
134145.0
134063.0
133984.0
133918.0
133879.0
133868.0
133876.0
133887.0
133886.0
133859.0
133810.0
133742.0
133677.0
133637.0
133632.0
133658.0
133693.0
133714.0
133698.0
133646.0
133575.0
133521.0
133512.0
133557.0
133646.0
133740.0
133802.0
133814.0
133801.0
133820.0
133946.0
134222.0
134642.0
135130.0
135854.0
135632.0
135239.0
134786.0
134356.0
133976.0
133615.0
133218.0
132759.0
132275.0
131867.0
131641.0
131655.0
131852.0
132081.0
132156.0
131963.0
131526.0
131030.0
130714.0
131773.0
131182.0
130577.0
130653.0
139984.0
145219.0
149652.0
151937.0
151240.0
147579.0
141870.0
135628.0
130451.0
127471.0
127012.0
128555.0
131029.0
133272.0
134467.0
134397.0
131592.0
132363.0
133000.0
133223.0
132131.0
131997.0
132195.0
132600.0
133002.0
133218.0
133181.0
132969.0
132733.0
132622.0
132702.0
132938.0
133221.0
133440.0
133529.0
133501.0
133427.0
133388.0
133434.0
133559.0
133713.0
133839.0
133903.0
133913.0
133912.0
133946.0
134049.0
134221.0
134813.0
134956.0
135086.0
135235.0
135426.0
135664.0
135931.0
136201.0
136452.0
136673.0
136874.0
137068.0
137278.0
137921.0
138025.0
138007.0
137843.0
137534.0
137094.0
136558.0
135964.0
135347.0
134734.0
134146.0
133595.0
133097.0
132665.0
132314.0
132053.0
131888.0
131817.0
131831.0
131911.0
132038.0
132197.0
132373.0
132560.0
132749.0
133526.0
133626.0
133712.0
133789.0
133932.0
133993.0
134040.0
134071.0
134081.0
134074.0
134057.0
134037.0
134025.0
134026.0
134036.0
134051.0
134055.0
134043.0
134008.0
133956.0
133899.0
133854.0
133834.0
133842.0
133869.0
133900.0
133910.0
133888.0
133836.0
133770.0
133717.0
133695.0
133712.0
133753.0
133785.0
133779.0
133722.0
133631.0
133546.0
133508.0
133548.0
133654.0
133788.0
133895.0
133932.0
133903.0
133859.0
133886.0
134420.0
134913.0
135435.0
135856.0
136070.0
136038.0
135795.0
135417.0
134985.0
133550.0
132972.0
132389.0
131898.0
131608.0
131559.0
131697.0
131877.0
131923.0
131728.0
131324.0
130882.0
130634.0
130736.0
131162.0
131685.0
131978.0
131809.0
131235.0
130677.0
130823.0
132356.0
135609.0
140303.0
145508.0
151246.0
147472.0
141650.0
135288.0
129982.0
126879.0
126324.0
127836.0
130365.0
132751.0
134160.0
134324.0
133534.0
132409.0
131562.0
131345.0
131739.0
132435.0
133043.0
133285.0
133119.0
132714.0
132334.0
132192.0
132348.0
132700.0
133064.0
133270.0
133254.0
133076.0
132871.0
132773.0
132846.0
133057.0
133310.0
133499.0
133563.0
133515.0
133415.0
133346.0
133359.0
133459.0
133606.0
133742.0
133834.0
133877.0
133902.0
133948.0
134049.0
134209.0
134411.0
134626.0
134833.0
135027.0
135215.0
135421.0
135656.0
135918.0
136189.0
136443.0
136657.0
136826.0
136958.0
137077.0
137204.0
137352.0
137514.0
137660.0
137747.0
137732.0
137585.0
137294.0
136869.0
136337.0
135740.0
135120.0
134521.0
133967.0
133475.0
133055.0
132712.0
132446.0
132257.0
132140.0
132090.0
132094.0
132143.0
132221.0
132320.0
132433.0
132559.0
132695.0
132840.0
132993.0
133146.0
133293.0
133434.0
133566.0
133686.0
133795.0
133895.0
133986.0
134070.0
134142.0
134201.0
134254.0
134297.0
134335.0
134367.0
134388.0
134397.0
134394.0
134378.0
134348.0
134310.0
134265.0
134219.0
134170.0
134113.0
134050.0
133984.0
133921.0
133869.0
133833.0
133813.0
133803.0
133793.0
133770.0
133725.0
133662.0
133598.0
133553.0
133541.0
133554.0
133580.0
133591.0
133568.0
133512.0
133442.0
133399.0
133679.0
133853.0
133989.0
134055.0
134067.0
134079.0
134173.0
134411.0
134803.0
135295.0
135780.0
136144.0
136303.0
136243.0
136003.0
135651.0
135244.0
134792.0
134277.0
133676.0
133013.0
132364.0
131853.0
131580.0
131565.0
131723.0
131873.0
131846.0
131562.0
131097.0
130656.0
130468.0
130654.0
131134.0
131638.0
131839.0
131557.0
130942.0
130506.0
130965.0
132941.0
136617.0
141531.0
146605.0
150448.0
151839.0
150184.0
133743.0
129178.0
126986.0
127231.0
129195.0
131742.0
134644.0
134300.0
133204.0
132038.0
131358.0
131394.0
131987.0
132752.0
133293.0
133391.0
133086.0
132609.0
132245.0
132180.0
132414.0
132802.0
133139.0
132966.0
132769.0
132715.0
132840.0
133085.0
133335.0
133495.0
133523.0
133459.0
133379.0
133361.0
133438.0
133592.0
133763.0
133897.0
133962.0
133970.0
133961.0
133983.0
134067.0
134210.0
134390.0
134575.0
134745.0
134899.0
135051.0
135223.0
135427.0
135662.0
135915.0
136166.0
136398.0
136608.0
136805.0
137007.0
137219.0
137442.0
137661.0
137839.0
137942.0
137933.0
137789.0
137499.0
137073.0
136540.0
135936.0
135302.0
134678.0
134096.0
133576.0
132246.0
132099.0
132020.0
132002.0
132039.0
132119.0
132231.0
132361.0
132500.0
132641.0
132782.0
132921.0
133063.0
133206.0
133347.0
133487.0
133620.0
133744.0
133855.0
133953.0
134043.0
134122.0
134196.0
134260.0
134312.0
134353.0
134378.0
134389.0
134385.0
134372.0
134360.0
134348.0
134341.0
134335.0
134323.0
134302.0
134270.0
134223.0
134167.0
134107.0
134049.0
133997.0
133953.0
133914.0
133877.0
133844.0
133813.0
133787.0
133770.0
133763.0
133768.0
133783.0
133803.0
133823.0
133840.0
133851.0
133855.0
133834.0
133834.0
133843.0
133859.0
133878.0
133892.0
133897.0
133898.0
133895.0
133895.0
133902.0
133916.0
133936.0
133963.0
134008.0
134093.0
134247.0
134488.0
134810.0
135168.0
135483.0
135665.0
135654.0
135435.0
135061.0
134628.0
134237.0
133940.0
133728.0
133529.0
133259.0
132879.0
132429.0
132018.0
131768.0
131749.0
131919.0
132131.0
132201.0
132006.0
131565.0
131049.0
130707.0
130717.0
131083.0
131592.0
131912.0
131788.0
131233.0
130640.0
130683.0
132070.0
135185.0
139808.0
145051.0
149575.0
152022.0
151517.0
148025.0
142414.0
136172.0
130901.0
127774.0
127164.0
128597.0
131028.0
133288.0
134538.0
134531.0
133584.0
132352.0
131472.0
131294.0
131770.0
132552.0
133205.0
133434.0
133202.0
132705.0
132247.0
132064.0
132223.0
132609.0
133005.0
133221.0
133183.0
132959.0
132707.0
132582.0
132659.0
132902.0
133197.0
133425.0
133513.0
133468.0
133365.0
133300.0
133335.0
133472.0
133662.0
133840.0
133951.0
133990.0
133987.0
133995.0
134054.0
134180.0
134360.0
134565.0
134765.0
134946.0
135118.0
135297.0
135506.0
135747.0
136008.0
136520.0
136741.0
136938.0
137122.0
137308.0
137503.0
137700.0
137873.0
137988.0
138008.0
137910.0
137677.0
137308.0
136822.0
136248.0
135622.0
134981.0
134359.0
133780.0
133265.0
132827.0
132474.0
132209.0
132027.0
131926.0
131895.0
131922.0
131994.0
132096.0
132220.0
132359.0
132505.0
132656.0
132806.0
132954.0
133100.0
133242.0
133379.0
133511.0
133636.0
133753.0
133863.0
133961.0
134048.0
134122.0
134188.0
134246.0
134296.0
134336.0
134368.0
134389.0
134400.0
134403.0
134401.0
134395.0
134387.0
134377.0
134359.0
134332.0
134293.0
134243.0
134184.0
134122.0
134061.0
134006.0
133963.0
133930.0
133907.0
133915.0
133922.0
133922.0
133908.0
133886.0
133860.0
133838.0
133828.0
133834.0
133858.0
133888.0
133917.0
133934.0
133938.0
133932.0
133917.0
133900.0
133889.0
133889.0
133904.0
133927.0
133952.0
133971.0
133986.0
133995.0
134007.0
134026.0
134059.0
134099.0
134135.0
134155.0
134151.0
134238.0
134424.0
134713.0
135059.0
135378.0
135570.0
135563.0
135336.0
134946.0
134493.0
134084.0
133780.0
133568.0
133375.0
133110.0
132736.0
132287.0
131878.0
131637.0
131635.0
131830.0
132071.0
132166.0
131990.0
130735.0
130767.0
131154.0
131680.0
132007.0
131876.0
131305.0
130699.0
130747.0
132164.0
135330.0
140010.0
145300.0
149839.0
152267.0
151714.0
148166.0
142509.0
136254.0
131007.0
127925.0
127360.0
128815.0
131225.0
133420.0
134578.0
134467.0
133431.0
132139.0
131237.0
131068.0
131575.0
132397.0
133093.0
133358.0
133152.0
132672.0
132219.0
132029.0
132176.0
132548.0
132935.0
133152.0
133127.0
132930.0
132712.0
132620.0
132721.0
132980.0
133285.0
133514.0
133597.0
133547.0
133442.0
133375.0
133408.0
134006.0
133968.0
133933.0
133950.0
134045.0
134210.0
134412.0
134620.0
134812.0
134986.0
135157.0
135342.0
136349.0
136614.0
136859.0
137082.0
137290.0
137488.0
137675.0
137840.0
137956.0
138000.0
137941.0
137753.0
137429.0
136976.0
136422.0
135805.0
135164.0
134539.0
133956.0
133435.0
132984.0
132612.0
132322.0
132113.0
131989.0
131943.0
131964.0
132036.0
132145.0
132279.0
132429.0
132592.0
132762.0
132936.0
133112.0
133278.0
133429.0
133557.0
133663.0
133753.0
133832.0
133909.0
134204.0
134257.0
134298.0
134325.0
134340.0
134349.0
134350.0
134343.0
134327.0
134305.0
134278.0
134246.0
134213.0
134180.0
134149.0
134115.0
134078.0
134033.0
133984.0
133934.0
133891.0
133856.0
133834.0
133827.0
133829.0
133835.0
133839.0
133838.0
133828.0
133812.0
133794.0
133777.0
133764.0
133763.0
133771.0
133787.0
133813.0
133840.0
133864.0
133881.0
133882.0
133873.0
133856.0
133844.0
133840.0
133847.0
133863.0
133881.0
133899.0
133913.0
133927.0
133943.0
133957.0
133966.0
133964.0
133953.0
133949.0
133982.0
134094.0
134311.0
134628.0
134996.0
135328.0
135527.0
135525.0
135316.0
134949.0
134528.0
134145.0
133848.0
133619.0
133384.0
133073.0
132665.0
132219.0
131857.0
131688.0
131756.0
131987.0
132213.0
132255.0
132019.0
131560.0
131088.0
131426.0
131937.0
132164.0
131890.0
131214.0
130613.0
130815.0
132503.0
135961.0
140833.0
146101.0
150368.0
152318.0
151209.0
147180.0
141248.0
134972.0
129926.0
127167.0
126923.0
128605.0
131119.0
133326.0
134469.0
134383.0
133439.0
132288.0
131523.0
131439.0
131945.0
132689.0
133270.0
133436.0
133184.0
132720.0
132327.0
132210.0
132408.0
132797.0
133176.0
133375.0
133342.0
133147.0
132933.0
132830.0
132896.0
133091.0
133319.0
133480.0
133521.0
133461.0
133364.0
133304.0
133328.0
133428.0
133563.0
133685.0
133763.0
133806.0
133846.0
133923.0
134058.0
134249.0
134469.0
134689.0
134886.0
135062.0
135232.0
135423.0
135655.0
135919.0
136201.0
136471.0
137040.0
137167.0
137293.0
137435.0
137590.0
137732.0
137821.0
137824.0
137709.0
137462.0
137085.0
136602.0
136049.0
135464.0
134883.0
134332.0
133824.0
133372.0
132980.0
132656.0
132405.0
132225.0
132121.0
132086.0
132107.0
132169.0
132254.0
132356.0
132468.0
132590.0
132725.0
132868.0
133018.0
133174.0
133326.0
133472.0
133608.0
133729.0
133839.0
133936.0
134019.0
134086.0
134141.0
134186.0
134224.0
134267.0
134312.0
134363.0
134414.0
134459.0
134489.0
134495.0
134477.0
134440.0
134281.0
134232.0
134186.0
134144.0
134098.0
134053.0
134010.0
133975.0
133949.0
133935.0
133931.0
133932.0
133932.0
133925.0
133913.0
133893.0
133864.0
133780.0
133771.0
133773.0
133784.0
133799.0
133812.0
133820.0
133881.0
133877.0
133865.0
133867.0
133919.0
134061.0
134320.0
134679.0
135084.0
135434.0
135629.0
135606.0
135365.0
134160.0
133881.0
133679.0
133476.0
133191.0
132803.0
132371.0
132014.0
131848.0
131914.0
132137.0
132349.0
132374.0
132124.0
131665.0
131199.0
130967.0
131113.0
131571.0
132078.0
132288.0
131995.0
131309.0
130720.0
130949.0
140956.0
146119.0
150226.0
151987.0
150707.0
146572.0
140632.0
134453.0
129580.0
127026.0
126971.0
128783.0
131353.0
133552.0
134648.0
134508.0
133531.0
132375.0
131626.0
131555.0
132064.0
132794.0
133349.0
132420.0
132333.0
132546.0
132921.0
133265.0
133414.0
133336.0
133115.0
132899.0
132820.0
132921.0
133153.0
133411.0
133591.0
133645.0
133599.0
133517.0
133475.0
133510.0
133608.0
133726.0
133815.0
133849.0
133842.0
133839.0
133880.0
133986.0
134150.0
134342.0
134532.0
134699.0
134851.0
135008.0
135195.0
135426.0
135697.0
135983.0
136259.0
136507.0
136727.0
136932.0
137144.0
137379.0
137638.0
137895.0
138109.0
138231.0
138218.0
138049.0
137722.0
137261.0
136697.0
136075.0
135435.0
134810.0
134224.0
133687.0
132199.0
132007.0
131882.0
131819.0
131808.0
131843.0
131916.0
132022.0
132161.0
132323.0
132505.0
132696.0
132884.0
133065.0
133233.0
133391.0
133540.0
133684.0
133822.0
133956.0
134081.0
134194.0
134290.0
134371.0
134441.0
134503.0
134559.0
134605.0
134641.0
134662.0
134662.0
134642.0
134599.0
134543.0
134477.0
134412.0
134353.0
134298.0
134246.0
134199.0
134152.0
134103.0
134051.0
134002.0
133957.0
133921.0
133895.0
133879.0
133868.0
133862.0
133853.0
133848.0
133843.0
133842.0
133842.0
133845.0
133853.0
133868.0
133888.0
133917.0
133946.0
133973.0
133992.0
134004.0
134008.0
134013.0
134015.0
134015.0
134008.0
133993.0
133979.0
133988.0
134050.0
134199.0
134448.0
134775.0
135116.0
135379.0
135482.0
135380.0
135093.0
134699.0
134296.0
133970.0
133743.0
133569.0
133361.0
133048.0
132628.0
132177.0
131824.0
131681.0
131766.0
131984.0
132165.0
132137.0
131837.0
131359.0
130917.0
130744.0
130944.0
131413.0
131861.0
131972.0
131600.0
130939.0
130547.0
131153.0
133356.0
137274.0
142362.0
147471.0
151185.0
152313.0
150345.0
145690.0
139562.0
133577.0
129201.0
127263.0
127726.0
129795.0
132299.0
134175.0
134836.0
134314.0
133127.0
131969.0
131372.0
131513.0
132186.0
132974.0
133480.0
133514.0
133149.0
132646.0
132295.0
132263.0
132528.0
132925.0
133235.0
133314.0
133157.0
132876.0
132639.0
132573.0
132703.0
132956.0
133212.0
133365.0
133382.0
133297.0
133199.0
133167.0
133236.0
133390.0
133568.0
133710.0
133788.0
133809.0
133817.0
133858.0
133957.0
134116.0
134314.0
134521.0
134724.0
134919.0
135122.0
135352.0
135617.0
135910.0
136211.0
136500.0
137698.0
137942.0
138169.0
138130.0
137769.0
137278.0
136692.0
136051.0
135392.0
134749.0
134143.0
133586.0
133090.0
132662.0
132310.0
131736.0
131777.0
131867.0
131988.0
132128.0
132281.0
132441.0
132605.0
132769.0
132935.0
133100.0
133261.0
133420.0
133574.0
133722.0
133861.0
133990.0
134108.0
134211.0
134300.0
134375.0
134491.0
134529.0
134554.0
134560.0
134548.0
134518.0
134474.0
134424.0
134372.0
134327.0
134289.0
134255.0
134222.0
134186.0
134150.0
134109.0
134069.0
134032.0
134000.0
133972.0
133945.0
133917.0
133886.0
133858.0
133836.0
133855.0
133888.0
133922.0
133952.0
133971.0
133980.0
133975.0
133962.0
133942.0
133924.0
133911.0
133905.0
133907.0
133910.0
133913.0
133913.0
133913.0
133918.0
133933.0
133956.0
133984.0
134011.0
134038.0
134076.0
134149.0
134289.0
134519.0
134832.0
135183.0
135490.0
135661.0
135632.0
135390.0
134993.0
134539.0
134127.0
133815.0
133589.0
133380.0
133107.0
132737.0
132311.0
131943.0
131752.0
131795.0
132019.0
132265.0
132152.0
131708.0
131201.0
130881.0
130929.0
131326.0
131846.0
130823.0
132270.0
135459.0
140131.0
145359.0
149782.0
152050.0
151336.0
147666.0
141962.0
135746.0
130608.0
127673.0
127248.0
128803.0
131260.0
133457.0
134598.0
134479.0
133467.0
132229.0
131394.0
131281.0
131812.0
132619.0
133267.0
133473.0
133224.0
132183.0
132400.0
132830.0
133249.0
133465.0
133412.0
133169.0
132898.0
132760.0
132824.0
133055.0
133336.0
133547.0
133619.0
133563.0
133454.0
133385.0
133413.0
133538.0
133710.0
133857.0
133931.0
133926.0
133879.0
133843.0
133866.0
133966.0
134133.0
134739.0
134926.0
135119.0
135334.0
135579.0
135850.0
136131.0
136405.0
136666.0
136912.0
137146.0
137380.0
137616.0
137841.0
138033.0
138154.0
138173.0
138067.0
137818.0
137432.0
136925.0
136329.0
135686.0
135041.0
133353.0
132926.0
132574.0
132300.0
132101.0
131976.0
131923.0
131936.0
131999.0
132102.0
132230.0
132370.0
132517.0
132667.0
132819.0
132974.0
133135.0
133300.0
133464.0
133625.0
133777.0
133912.0
134034.0
134139.0
134230.0
134308.0
134372.0
134423.0
134458.0
134477.0
134485.0
134481.0
134474.0
134463.0
134448.0
134425.0
134389.0
134339.0
134274.0
134201.0
134130.0
134071.0
134033.0
134015.0
134014.0
134017.0
134015.0
134001.0
133977.0
133943.0
133907.0
133880.0
133863.0
133861.0
133872.0
133892.0
133957.0
133989.0
134020.0
134044.0
134062.0
134072.0
134072.0
134055.0
134023.0
133976.0
133927.0
133883.0
133856.0
133847.0
133853.0
133862.0
133865.0
133868.0
133894.0
133982.0
134167.0
134463.0
134841.0
135221.0
135512.0
135619.0
135503.0
135194.0
134779.0
134368.0
134039.0
133803.0
133602.0
133351.0
131828.0
131774.0
131940.0
132192.0
132336.0
132214.0
131810.0
131270.0
130844.0
130758.0
131065.0
131593.0
132005.0
131985.0
131461.0
130736.0
130467.0
131417.0
138511.0
143856.0
148848.0
152033.0
152336.0
149481.0
144137.0
137725.0
131921.0
128091.0
126841.0
127886.0
130260.0
132746.0
134362.0
134692.0
133933.0
132697.0
131668.0
131296.0
131631.0
132375.0
133096.0
133441.0
133311.0
132862.0
132391.0
132168.0
132301.0
132707.0
133171.0
133475.0
133504.0
133295.0
132998.0
132781.0
132754.0
132910.0
133156.0
133365.0
133448.0
133389.0
133255.0
133136.0
133107.0
133189.0
133672.0
133688.0
133719.0
133811.0
133983.0
134223.0
134494.0
134756.0
134989.0
135198.0
135407.0
135641.0
135916.0
136224.0
136543.0
136843.0
137100.0
137306.0
137470.0
137614.0
137758.0
137913.0
138064.0
138177.0
138214.0
138133.0
137905.0
137525.0
137008.0
136392.0
135725.0
135054.0
134416.0
133834.0
133320.0
132879.0
132517.0
132236.0
132040.0
131932.0
131905.0
131948.0
132037.0
132148.0
132269.0
132389.0
132512.0
132643.0
132787.0
132946.0
133114.0
133276.0
133419.0
133534.0
133930.0
134026.0
134120.0
134197.0
134282.0
134284.0
134291.0
134307.0
134330.0
134355.0
134369.0
134371.0
134354.0
134323.0
134284.0
134240.0
134196.0
134152.0
134106.0
134059.0
134013.0
133975.0
133946.0
133925.0
133914.0
133913.0
133915.0
133919.0
133922.0
133923.0
133922.0
133922.0
133926.0
133933.0
133945.0
133953.0
133953.0
133939.0
133916.0
133903.0
133939.0
134059.0
134288.0
134620.0
135007.0
135361.0
135586.0
135609.0
135414.0
135048.0
134609.0
134194.0
133863.0
133611.0
133380.0
133102.0
132744.0
132342.0
131997.0
131812.0
131844.0
132036.0
132243.0
132293.0
132088.0
131663.0
131202.0
130944.0
131055.0
131517.0
132099.0
132452.0
132314.0
131703.0
131015.0
130939.0
132200.0
135206.0
139763.0
145009.0
149609.0
152183.0
151808.0
148378.0
130622.0
127089.0
126124.0
127361.0
129814.0
132316.0
133953.0
134361.0
133750.0
132699.0
131834.0
131552.0
131889.0
132575.0
133223.0
133536.0
133432.0
133052.0
132654.0
132471.0
132587.0
132924.0
133545.0
133570.0
133415.0
133206.0
133079.0
133115.0
133299.0
133543.0
133742.0
133821.0
133781.0
133679.0
133587.0
133566.0
133625.0
133736.0
133938.0
133935.0
133948.0
134013.0
134144.0
134326.0
134536.0
134754.0
134968.0
135182.0
135411.0
135661.0
135927.0
136199.0
136455.0
136677.0
136867.0
137030.0
137187.0
137353.0
137534.0
137718.0
137872.0
137964.0
137956.0
137826.0
137562.0
137173.0
136680.0
136113.0
135503.0
134884.0
134285.0
133734.0
133246.0
132837.0
132510.0
132272.0
132115.0
132031.0
132007.0
132030.0
132088.0
132174.0
132281.0
132407.0
132546.0
133018.0
133177.0
133329.0
133471.0
133604.0
133725.0
133836.0
133936.0
134028.0
134112.0
134190.0
134261.0
134325.0
134383.0
134435.0
134477.0
134508.0
134527.0
134531.0
134521.0
134496.0
134455.0
134400.0
134340.0
134275.0
134217.0
134166.0
134127.0
134098.0
134076.0
134056.0
134032.0
134002.0
133971.0
133940.0
133912.0
133888.0
133869.0
133858.0
133859.0
133871.0
133893.0
133921.0
133969.0
133962.0
133945.0
133920.0
133887.0
133856.0
133834.0
133843.0
133911.0
134068.0
134326.0
134671.0
135044.0
135363.0
135537.0
135509.0
135273.0
134893.0
134466.0
134091.0
133817.0
133625.0
133441.0
133188.0
132071.0
131890.0
131934.0
132145.0
132370.0
132425.0
132204.0
131750.0
131250.0
130945.0
131002.0
131394.0
131892.0
132156.0
131956.0
131346.0
130760.0
130899.0
132453.0
135752.0
140502.0
145749.0
150118.0
152279.0
151419.0
147598.0
141772.0
135476.0
130311.0
127396.0
127026.0
128659.0
131203.0
133488.0
134701.0
134631.0
133636.0
132381.0
131502.0
131334.0
131814.0
132587.0
133229.0
133453.0
133230.0
132760.0
132334.0
132180.0
132356.0
132744.0
133133.0
133343.0
133311.0
133105.0
132839.0
133062.0
133326.0
133521.0
133583.0
133531.0
133435.0
133383.0
133427.0
133566.0
133746.0
133909.0
134010.0
134045.0
134047.0
134060.0
134125.0
134250.0
134420.0
134605.0
134781.0
134940.0
135097.0
135271.0
135476.0
135720.0
135992.0
136272.0
136545.0
136801.0
137042.0
137279.0
137519.0
137761.0
137988.0
138170.0
138273.0
138265.0
138122.0
137836.0
137413.0
136874.0
136254.0
135595.0
133746.0
133257.0
132851.0
132526.0
132276.0
132096.0
131983.0
131932.0
131941.0
132000.0
132105.0
132242.0
132397.0
132555.0
132703.0
132841.0
132968.0
133092.0
133219.0
133355.0
133503.0
133653.0
133797.0
133924.0
134027.0
134105.0
134165.0
134216.0
134266.0
134319.0
134373.0
134422.0
134458.0
134472.0
134465.0
134359.0
134322.0
134291.0
134264.0
134237.0
134204.0
134164.0
134117.0
134067.0
134024.0
133990.0
133973.0
133967.0
133964.0
133959.0
133949.0
133935.0
133923.0
133917.0
133921.0
133930.0
133935.0
133929.0
133912.0
133886.0
133860.0
133840.0
133835.0
133850.0
133890.0
133970.0
134107.0
134318.0
134608.0
134952.0
135290.0
135511.0
135204.0
134779.0
134341.0
133969.0
133699.0
133491.0
133270.0
131856.0
131744.0
131849.0
132076.0
132254.0
132223.0
131922.0
131447.0
131014.0
130860.0
131086.0
131588.0
132073.0
132210.0
131842.0
131157.0
130708.0
131242.0
133372.0
137248.0
142336.0
147498.0
151298.0
152519.0
150615.0
145966.0
139778.0
133682.0
127480.0
129517.0
132041.0
133967.0
134687.0
134214.0
133054.0
131908.0
131311.0
131451.0
132131.0
132934.0
133460.0
133512.0
133160.0
132669.0
132326.0
132305.0
132585.0
132998.0
133323.0
133413.0
133259.0
132975.0
132732.0
132662.0
132791.0
133051.0
133314.0
133478.0
133498.0
133414.0
133308.0
133260.0
133311.0
133443.0
133603.0
133733.0
133805.0
133828.0
133845.0
133897.0
134009.0
134181.0
134390.0
134609.0
134825.0
135037.0
135259.0
135504.0
135774.0
136062.0
136345.0
136605.0
136838.0
137053.0
137269.0
137504.0
137765.0
138038.0
138289.0
138467.0
138525.0
138429.0
138164.0
137744.0
137193.0
136560.0
135885.0
135216.0
134584.0
134011.0
133506.0
133070.0
132706.0
132418.0
132201.0
132062.0
131995.0
131996.0
132059.0
132169.0
132310.0
132468.0
132633.0
132800.0
132966.0
133132.0
133298.0
133632.0
133794.0
133942.0
134071.0
134174.0
134255.0
134315.0
134357.0
134388.0
134411.0
134430.0
134442.0
134441.0
134428.0
134401.0
134363.0
134322.0
134276.0
134230.0
134182.0
134132.0
134080.0
134025.0
133974.0
133931.0
133902.0
133886.0
133876.0
133867.0
133850.0
133825.0
133792.0
133763.0
133745.0
133749.0
133775.0
133813.0
133846.0
133862.0
133859.0
133846.0
133837.0
133841.0
133862.0
133889.0
133908.0
133905.0
133873.0
133821.0
133766.0
133730.0
133734.0
133779.0
133871.0
134448.0
134750.0
135075.0
135367.0
135551.0
135563.0
135373.0
135011.0
134558.0
134112.0
133475.0
133247.0
132986.0
132643.0
132236.0
131854.0
131613.0
131594.0
131777.0
132026.0
132154.0
132018.0
131607.0
131079.0
130684.0
130644.0
131001.0
131574.0
132014.0
131998.0
131451.0
130686.0
130373.0
131298.0
134001.0
138445.0
143879.0
148981.0
152274.0
152659.0
149837.0
144475.0
128188.0
126866.0
127868.0
130224.0
132704.0
134319.0
134638.0
133855.0
132588.0
131534.0
131146.0
131483.0
132246.0
132995.0
133369.0
133260.0
132814.0
132327.0
132070.0
132163.0
132525.0
132951.0
133232.0
133254.0
132573.0
132562.0
132736.0
133003.0
133244.0
133374.0
133378.0
133316.0
133272.0
133310.0
133442.0
133625.0
133800.0
133916.0
133961.0
133965.0
133976.0
134039.0
134360.0
134573.0
134785.0
134982.0
135173.0
135378.0
135611.0
135876.0
136158.0
136436.0
136689.0
136908.0
137101.0
137286.0
137479.0
137690.0
137901.0
138082.0
138190.0
137375.0
136859.0
136266.0
135628.0
134978.0
132744.0
132377.0
132109.0
131939.0
131863.0
131861.0
131920.0
132016.0
132141.0
132593.0
132748.0
132896.0
133035.0
133163.0
133284.0
133403.0
133523.0
133646.0
133770.0
133887.0
133990.0
134072.0
134133.0
134177.0
134211.0
134243.0
134282.0
134328.0
134378.0
134423.0
134454.0
134463.0
134449.0
134414.0
134360.0
134297.0
134233.0
134175.0
134126.0
134087.0
134053.0
134023.0
133997.0
133973.0
133954.0
133943.0
133943.0
133954.0
133968.0
133976.0
133960.0
133938.0
133919.0
133904.0
133900.0
133902.0
133906.0
133913.0
133916.0
133915.0
133910.0
133906.0
133901.0
133900.0
133917.0
133979.0
134118.0
134350.0
134668.0
135024.0
135338.0
135518.0
135498.0
135264.0
134868.0
134403.0
133975.0
133648.0
133411.0
133208.0
132965.0
132648.0
132290.0
131987.0
131841.0
131901.0
132110.0
132325.0
132373.0
132152.0
131705.0
131218.0
130930.0
131004.0
131419.0
131942.0
132238.0
132059.0
131445.0
130811.0
130855.0
132286.0
135471.0
140175.0
145485.0
150040.0
152473.0
151905.0
148297.0
142515.0
136062.0
130555.0
127202.0
126417.0
127771.0
130243.0
132662.0
134159.0
134417.0
133695.0
132593.0
131734.0
131490.0
133161.0
133415.0
133255.0
132843.0
132448.0
132292.0
132446.0
132810.0
133192.0
133412.0
133394.0
133195.0
132953.0
132815.0
132853.0
133050.0
133310.0
133519.0
133604.0
133566.0
133461.0
133375.0
133369.0
133456.0
133604.0
133758.0
133877.0
133946.0
133986.0
134028.0
134109.0
134241.0
134419.0
134623.0
134836.0
135053.0
135280.0
135527.0
135798.0
136087.0
136373.0
136636.0
136855.0
137028.0
137165.0
137286.0
137412.0
137555.0
137704.0
137833.0
137902.0
137876.0
137727.0
137443.0
137032.0
136522.0
135947.0
135351.0
134765.0
134213.0
133710.0
133266.0
132885.0
132572.0
132333.0
132176.0
132100.0
132102.0
132165.0
132273.0
132403.0
132543.0
132678.0
132806.0
132928.0
133047.0
133166.0
133283.0
133398.0
133504.0
133603.0
133697.0
133789.0
133881.0
133971.0
134056.0
134131.0
134189.0
134225.0
134237.0
134233.0
134222.0
134213.0
134209.0
134212.0
134216.0
134216.0
134205.0
134181.0
134145.0
134102.0
134061.0
134028.0
134008.0
134000.0
133998.0
134004.0
134013.0
134021.0
134030.0
134037.0
134042.0
134045.0
134039.0
134020.0
133988.0
133953.0
133923.0
133913.0
133924.0
134051.0
134046.0
134023.0
133997.0
133979.0
133982.0
134007.0
134064.0
134162.0
134314.0
134537.0
134830.0
135164.0
135482.0
135706.0
135759.0
135607.0
135272.0
134834.0
134395.0
134032.0
133775.0
133576.0
133359.0
133061.0
132675.0
132275.0
131979.0
131883.0
131995.0
132215.0
132370.0
132301.0
131964.0
131466.0
131038.0
130903.0
131155.0
131670.0
132148.0
132255.0
131850.0
131146.0
133527.0
137486.0
142620.0
147756.0
151463.0
152535.0
150471.0
145690.0
139432.0
126922.0
127401.0
129525.0
132111.0
134074.0
134815.0
132012.0
131382.0
131477.0
132114.0
132882.0
133393.0
133449.0
133112.0
132630.0
132286.0
132249.0
132507.0
132900.0
133224.0
133337.0
133226.0
132995.0
132796.0
132750.0
132885.0
133142.0
133406.0
133630.0
133586.0
133521.0
133502.0
133558.0
133672.0
133795.0
133882.0
133915.0
133909.0
133905.0
133945.0
134052.0
134218.0
134420.0
134631.0
134838.0
135039.0
135247.0
135476.0
135727.0
136266.0
136526.0
136767.0
136999.0
137237.0
137488.0
137755.0
138246.0
138395.0
138433.0
138334.0
138093.0
137718.0
137232.0
136667.0
136053.0
135418.0
134793.0
134199.0
133653.0
133172.0
132767.0
132445.0
132209.0
132058.0
131982.0
131967.0
132003.0
132078.0
132183.0
132312.0
132454.0
132609.0
132769.0
132929.0
133084.0
133230.0
133366.0
133497.0
133621.0
133740.0
133853.0
133960.0
134061.0
134156.0
134246.0
134333.0
134414.0
134492.0
134566.0
134625.0
134668.0
134692.0
134696.0
134682.0
134658.0
134623.0
134586.0
134545.0
134498.0
134444.0
134380.0
134310.0
134234.0
134162.0
134096.0
134041.0
133998.0
133966.0
133943.0
133924.0
133912.0
133906.0
133904.0
133909.0
133944.0
133945.0
133947.0
133947.0
133943.0
133923.0
133921.0
133924.0
133935.0
133946.0
133953.0
133955.0
133951.0
133952.0
133962.0
133988.0
134031.0
134088.0
134161.0
134263.0
134405.0
134602.0
134855.0
135138.0
135394.0
135546.0
135532.0
135327.0
134964.0
134525.0
134107.0
133782.0
133557.0
133382.0
133172.0
132862.0
132459.0
132047.0
131751.0
131667.0
131798.0
132033.0
132191.0
132118.0
131771.0
131270.0
130840.0
130708.0
130955.0
131446.0
131876.0
131935.0
131516.0
130866.0
130587.0
131418.0
133916.0
138119.0
143383.0
148488.0
151999.0
152773.0
150407.0
145427.0
139139.0
133190.0
129003.0
127311.0
127972.0
130115.0
132558.0
134271.0
134749.0
134100.0
132884.0
131786.0
131302.0
131543.0
132262.0
133035.0
133481.0
133453.0
133060.0
132576.0
132284.0
132321.0
132635.0
133041.0
133329.0
133375.0
133198.0
132928.0
132732.0
132719.0
132897.0
133174.0
133424.0
133552.0
133537.0
133435.0
133341.0
133329.0
133425.0
133599.0
133784.0
133923.0
133987.0
133997.0
134005.0
134055.0
134171.0
134347.0
134550.0
134752.0
134930.0
135089.0
135246.0
135427.0
135647.0
135907.0
136188.0
136470.0
136737.0
136977.0
137200.0
137410.0
137622.0
137832.0
138031.0
138187.0
138271.0
138246.0
138090.0
137788.0
137346.0
136786.0
136146.0
135468.0
134801.0
134178.0
133626.0
133153.0
132765.0
132460.0
132230.0
132071.0
131981.0
131952.0
131977.0
132048.0
132155.0
132282.0
132420.0
132566.0
132711.0
132858.0
133004.0
133148.0
133289.0
133426.0
133559.0
133685.0
133806.0
133922.0
134036.0
134146.0
134249.0
134340.0
134420.0
134486.0
134535.0
134570.0
134589.0
134600.0
134599.0
134585.0
134560.0
134522.0
134473.0
134199.0
134168.0
134148.0
134133.0
134083.0
134063.0
134041.0
134020.0
134005.0
133996.0
133987.0
133980.0
133971.0
133961.0
133953.0
133947.0
133943.0
133944.0
133949.0
133959.0
133966.0
133971.0
133972.0
133975.0
133980.0
133986.0
133992.0
133998.0
134008.0
134025.0
134050.0
134079.0
134111.0
134137.0
134150.0
134118.0
134122.0
134140.0
134174.0
134233.0
134335.0
134499.0
134738.0
135034.0
135343.0
135587.0
135685.0
135585.0
135285.0
134851.0
134386.0
133990.0
133713.0
133537.0
133380.0
133156.0
132825.0
132425.0
132066.0
131870.0
131892.0
132086.0
132294.0
132334.0
132095.0
131618.0
131091.0
130769.0
130828.0
131248.0
131792.0
132110.0
131943.0
131328.0
130694.0
130754.0
132231.0
135497.0
140291.0
145674.0
150257.0
152667.0
152043.0
148394.0
142644.0
136327.0
131060.0
127992.0
127451.0
128926.0
131333.0
133510.0
132196.0
131316.0
131159.0
131654.0
132445.0
133095.0
133325.0
133107.0
132645.0
132236.0
132106.0
132303.0
132703.0
133090.0
133283.0
133226.0
132662.0
132765.0
133027.0
133334.0
133562.0
133646.0
133601.0
133505.0
133447.0
133482.0
133608.0
133773.0
133916.0
133994.0
134010.0
133996.0
134008.0
134079.0
134217.0
134399.0
134587.0
134758.0
134907.0
135055.0
135234.0
135466.0
135759.0
136095.0
136444.0
136771.0
137054.0
137291.0
137494.0
137688.0
137892.0
138102.0
138300.0
138448.0
138506.0
138432.0
138203.0
137813.0
137280.0
136642.0
135943.0
135230.0
134543.0
133914.0
133361.0
132893.0
132512.0
132216.0
131872.0
131808.0
131804.0
131850.0
131932.0
132047.0
132182.0
132332.0
132490.0
132655.0
132822.0
132992.0
133160.0
133327.0
133491.0
133647.0
133794.0
133924.0
134037.0
134131.0
134214.0
134287.0
134356.0
134417.0
134475.0
134521.0
134551.0
134561.0
134552.0
134532.0
134510.0
134489.0
134472.0
134448.0
134413.0
134356.0
134277.0
134182.0
134082.0
133900.0
133896.0
133907.0
133921.0
133927.0
133924.0
133913.0
133906.0
133911.0
133935.0
133972.0
134017.0
134057.0
134082.0
134092.0
134089.0
134078.0
134065.0
134056.0
134051.0
134051.0
134050.0
134045.0
134036.0
134025.0
134014.0
134007.0
133999.0
133989.0
133979.0
133970.0
133971.0
133988.0
134077.0
134132.0
134176.0
134199.0
134201.0
134190.0
134179.0
134175.0
134180.0
134192.0
134211.0
134243.0
134312.0
134444.0
134662.0
134950.0
135259.0
135502.0
135596.0
135487.0
135187.0
134761.0
134315.0
133942.0
133676.0
133480.0
133275.0
132988.0
132609.0
132206.0
131899.0
131792.0
131903.0
132137.0
132316.0
132270.0
131939.0
131421.0
130946.0
130759.0
130975.0
131485.0
131985.0
132128.0
131744.0
131018.0
130515.0
131006.0
133142.0
137090.0
142331.0
147705.0
151737.0
153153.0
151367.0
146723.0
140425.0
134127.0
129373.0
127085.0
127297.0
129260.0
131802.0
133809.0
134637.0
134256.0
133145.0
131990.0
131343.0
131410.0
132019.0
132778.0
133290.0
133356.0
133034.0
132570.0
132246.0
132232.0
132519.0
132940.0
133287.0
133411.0
133296.0
133045.0
132821.0
132751.0
132870.0
133113.0
133366.0
133525.0
133552.0
133473.0
133367.0
133310.0
133342.0
133454.0
133600.0
133728.0
133811.0
133854.0
133893.0
133964.0
134085.0
134256.0
134458.0
134669.0
134875.0
135079.0
135292.0
135530.0
135798.0
136648.0
136887.0
137090.0
137270.0
137438.0
137607.0
137781.0
137948.0
138085.0
138159.0
138146.0
138017.0
137763.0
137386.0
136898.0
136332.0
135722.0
135110.0
134522.0
133980.0
133498.0
133082.0
132732.0
132449.0
132234.0
132091.0
132023.0
132032.0
132105.0
132228.0
132382.0
132546.0
132708.0
132858.0
132995.0
133121.0
133242.0
133361.0
133480.0
133590.0
133689.0
133776.0
133852.0
133925.0
134001.0
134085.0
134172.0
134259.0
134333.0
134382.0
134404.0
134403.0
134391.0
134378.0
134373.0
134374.0
134377.0
134308.0
134257.0
134206.0
134172.0
134158.0
134184.0
134165.0
134132.0
134098.0
134071.0
134059.0
134061.0
134068.0
134076.0
134066.0
134065.0
134070.0
134083.0
134099.0
134112.0
134110.0
134094.0
134070.0
134047.0
134038.0
134040.0
134052.0
134062.0
134050.0
134030.0
134013.0
134014.0
134031.0
134058.0
134078.0
134080.0
134080.0
134108.0
134212.0
134426.0
134752.0
135139.0
135497.0
135716.0
135716.0
135479.0
135067.0
134584.0
134143.0
133804.0
133560.0
133343.0
131889.0
131964.0
132183.0
132387.0
131668.0
131178.0
130914.0
131026.0
131461.0
131966.0
132201.0
131951.0
131311.0
130749.0
130983.0
132683.0
136132.0
140973.0
146205.0
150442.0
152382.0
151285.0
141401.0
135168.0
130149.0
127398.0
127140.0
128798.0
131284.0
133468.0
134592.0
134494.0
133542.0
132387.0
131618.0
131527.0
132027.0
132772.0
133362.0
133546.0
133320.0
132885.0
132518.0
132419.0
132622.0
132996.0
133343.0
133503.0
133432.0
133206.0
132977.0
132872.0
132945.0
133149.0
133573.0
133502.0
133403.0
133349.0
133381.0
133489.0
133625.0
133735.0
133792.0
133809.0
133825.0
133887.0
134459.0
134691.0
134895.0
135073.0
135243.0
135436.0
135669.0
135945.0
136245.0
136544.0
136818.0
137059.0
137273.0
137482.0
138155.0
138341.0
138450.0
138446.0
138301.0
138010.0
137585.0
137055.0
136451.0
135811.0
135165.0
134541.0
133958.0
133430.0
132972.0
132590.0
131917.0
131976.0
132073.0
132195.0
132649.0
132814.0
132977.0
133133.0
133283.0
133427.0
133566.0
133704.0
133839.0
133970.0
134091.0
134200.0
134292.0
134367.0
134425.0
134472.0
134511.0
134545.0
134572.0
134588.0
134593.0
134583.0
134400.0
134359.0
134320.0
134284.0
134249.0
134219.0
134193.0
134169.0
134145.0
134120.0
134093.0
134073.0
134054.0
134045.0
134046.0
134055.0
134071.0
134085.0
134093.0
134094.0
134095.0
134093.0
134090.0
134083.0
134045.0
134029.0
134016.0
134006.0
133999.0
133994.0
133990.0
133984.0
133978.0
133973.0
133970.0
133974.0
133994.0
134051.0
134168.0
134367.0
134648.0
134985.0
135317.0
135568.0
135658.0
135550.0
135263.0
134869.0
134471.0
134152.0
133936.0
133783.0
133604.0
133321.0
132917.0
132455.0
132062.0
131859.0
131891.0
132083.0
132274.0
132279.0
132013.0
131533.0
131046.0
130788.0
130903.0
132029.0
131761.0
131125.0
130612.0
130945.0
132783.0
136375.0
141325.0
146592.0
150774.0
152579.0
151312.0
147165.0
141202.0
135002.0
130115.0
127549.0
127465.0
129220.0
131694.0
133759.0
134700.0
134411.0
133319.0
132104.0
131357.0
131338.0
131919.0
132715.0
133310.0
133456.0
133172.0
132681.0
132282.0
132178.0
132393.0
132785.0
133143.0
133299.0
133217.0
132984.0
132757.0
132671.0
132775.0
133020.0
133290.0
133476.0
133528.0
133471.0
133380.0
133339.0
133394.0
133533.0
133707.0
133857.0
133947.0
133980.0
133991.0
134027.0
134118.0
134271.0
134467.0
134675.0
134875.0
135065.0
136002.0
136306.0
136614.0
136905.0
137172.0
137419.0
137657.0
137894.0
138134.0
138358.0
138541.0
138644.0
138636.0
138486.0
138183.0
137730.0
137154.0
136491.0
135784.0
135076.0
134406.0
133797.0
133265.0
132815.0
131973.0
131857.0
131815.0
131833.0
131898.0
131996.0
132113.0
132241.0
132373.0
132512.0
132661.0
132819.0
132982.0
133149.0
133316.0
133476.0
133626.0
133765.0
133892.0
134007.0
134114.0
134213.0
134302.0
134382.0
134451.0
134509.0
134556.0
134593.0
134617.0
134636.0
134642.0
134640.0
134624.0
134595.0
134551.0
134495.0
134432.0
134362.0
134293.0
134231.0
134176.0
134132.0
134096.0
134059.0
134022.0
133983.0
133943.0
133907.0
133877.0
133861.0
133861.0
133876.0
133895.0
133911.0
133922.0
133930.0
133941.0
134041.0
134053.0
134046.0
134023.0
133996.0
133976.0
133971.0
134027.0
134100.0
134223.0
134411.0
134674.0
135584.0
135701.0
135620.0
135346.0
134940.0
134501.0
134125.0
133853.0
133659.0
133463.0
133185.0
132792.0
132343.0
131954.0
131752.0
131797.0
132029.0
132282.0
132367.0
132171.0
131731.0
131240.0
130947.0
131023.0
131450.0
131981.0
132277.0
132090.0
131471.0
130860.0
130969.0
132501.0
135798.0
140566.0
145846.0
150247.0
152421.0
151557.0
147724.0
141886.0
135599.0
130463.0
127587.0
127247.0
128881.0
131382.0
133583.0
134692.0
134528.0
133476.0
132223.0
131890.0
132731.0
133404.0
133628.0
133392.0
132915.0
132506.0
132390.0
132613.0
133033.0
133423.0
133593.0
133483.0
133177.0
132851.0
132663.0
132692.0
132899.0
133171.0
133386.0
133462.0
133416.0
133315.0
133251.0
133280.0
133404.0
133575.0
133734.0
133832.0
133867.0
133873.0
133896.0
133974.0
134121.0
134317.0
134534.0
134747.0
134949.0
135152.0
135374.0
135633.0
135931.0
136255.0
136584.0
136895.0
137178.0
137435.0
137681.0
137926.0
138174.0
138410.0
138600.0
138708.0
138691.0
138525.0
138200.0
137728.0
135778.0
135091.0
134440.0
133843.0
133309.0
132845.0
132453.0
132143.0
131921.0
131793.0
131750.0
131783.0
131872.0
131998.0
132143.0
132294.0
132444.0
132594.0
132749.0
132912.0
133083.0
133257.0
133427.0
133588.0
133732.0
133858.0
133967.0
134060.0
134144.0
134222.0
134296.0
134365.0
134423.0
134475.0
134514.0
134539.0
134551.0
134552.0
134546.0
134531.0
134507.0
134475.0
134435.0
134387.0
134336.0
134282.0
134232.0
134185.0
134147.0
134117.0
134095.0
134078.0
134063.0
134048.0
134033.0
134018.0
134004.0
133992.0
133989.0
133995.0
134012.0
134038.0
134068.0
134091.0
134101.0
134092.0
134071.0
134045.0
134026.0
134024.0
134036.0
134058.0
134082.0
134097.0
134107.0
134109.0
134110.0
134111.0
134117.0
134133.0
134166.0
134241.0
134382.0
134606.0
134906.0
135237.0
135520.0
135671.0
135622.0
135365.0
134953.0
134485.0
134065.0
133751.0
133536.0
133347.0
133098.0
132752.0
132346.0
131988.0
131804.0
131854.0
132092.0
132355.0
132452.0
132257.0
131795.0
131256.0
130909.0
130946.0
131369.0
131941.0
132298.0
132148.0
131486.0
130717.0
130569.0
131817.0
134915.0
139686.0
145234.0
150154.0
152989.0
136982.0
131279.0
127738.0
126831.0
133002.0
134428.0
134559.0
133672.0
132416.0
131459.0
131194.0
131611.0
132382.0
133067.0
133351.0
133172.0
132712.0
132270.0
132091.0
132259.0
132671.0
133112.0
133384.0
133396.0
133206.0
132961.0
132819.0
132862.0
133554.0
133635.0
133586.0
133469.0
133371.0
133357.0
133434.0
133565.0
133691.0
133774.0
133806.0
133819.0
133859.0
133959.0
134126.0
134348.0
134587.0
135274.0
135518.0
135796.0
136103.0
136420.0
136722.0
136989.0
137215.0
137410.0
137591.0
137781.0
137986.0
138193.0
138372.0
138481.0
138483.0
137672.0
137151.0
136552.0
135911.0
135261.0
134633.0
134043.0
133514.0
133057.0
132679.0
132387.0
132179.0
132050.0
131991.0
131993.0
132041.0
132124.0
132235.0
132368.0
132516.0
132675.0
132835.0
132989.0
133135.0
133266.0
133381.0
133585.0
133687.0
133795.0
133907.0
134019.0
134280.0
134332.0
134371.0
134402.0
134436.0
134474.0
134513.0
134544.0
134561.0
134557.0
134533.0
134488.0
134433.0
134376.0
134325.0
134283.0
134247.0
134158.0
134132.0
134112.0
134095.0
134082.0
134066.0
134048.0
134026.0
134004.0
133986.0
133975.0
133969.0
133964.0
133954.0
133939.0
133924.0
133916.0
133919.0
133936.0
133965.0
134010.0
134073.0
134174.0
134336.0
134570.0
134872.0
135199.0
135473.0
135616.0
135568.0
135326.0
134944.0
134515.0
134129.0
133840.0
133629.0
133433.0
133176.0
132828.0
132436.0
132105.0
131945.0
132002.0
132212.0
132422.0
132458.0
132220.0
131759.0
131267.0
130990.0
131093.0
131544.0
132098.0
132408.0
132226.0
131602.0
130969.0
140472.0
145771.0
150260.0
152576.0
151866.0
148134.0
142287.0
135846.0
130426.0
127204.0
126551.0
127998.0
130498.0
132881.0
134297.0
134469.0
133686.0
132561.0
131720.0
131514.0
131919.0
132631.0
133250.0
133495.0
133327.0
132918.0
132542.0
132413.0
132590.0
132963.0
133341.0
133547.0
133516.0
133310.0
133071.0
132946.0
132996.0
133196.0
133443.0
133624.0
133675.0
133606.0
133483.0
133391.0
133383.0
133470.0
133612.0
133750.0
133842.0
133884.0
133903.0
133946.0
134049.0
134222.0
134454.0
134715.0
134981.0
135238.0
135489.0
135749.0
136028.0
136323.0
136626.0
136913.0
137172.0
137395.0
137592.0
137775.0
137955.0
138133.0
138297.0
138416.0
138454.0
138377.0
138169.0
137822.0
135479.0
134822.0
134200.0
133633.0
133134.0
132713.0
132378.0
132132.0
131974.0
131896.0
131887.0
131932.0
132018.0
132132.0
132265.0
132413.0
132572.0
132741.0
132914.0
133087.0
133253.0
133409.0
133551.0
133683.0
133804.0
133919.0
134028.0
134128.0
134221.0
134298.0
134359.0
134402.0
134432.0
134450.0
134457.0
134460.0
134461.0
134461.0
134459.0
134455.0
134449.0
134439.0
134424.0
134401.0
134367.0
134326.0
134281.0
134239.0
134202.0
134178.0
134164.0
134160.0
134159.0
134154.0
134137.0
134111.0
134079.0
134046.0
134024.0
134008.0
133998.0
133988.0
133973.0
133953.0
133935.0
133922.0
133921.0
133931.0
133944.0
133955.0
133954.0
133947.0
133938.0
133936.0
133952.0
133994.0
134064.0
134177.0
134337.0
134554.0
134823.0
135124.0
135405.0
135597.0
135635.0
135488.0
135176.0
134767.0
134356.0
134017.0
133774.0
133593.0
133388.0
133091.0
132690.0
131769.0
131864.0
132111.0
132336.0
132357.0
132089.0
131603.0
131107.0
130851.0
130980.0
131431.0
131934.0
132149.0
131876.0
131237.0
130734.0
131104.0
133013.0
136705.0
141760.0
151660.0
147333.0
141176.0
134812.0
129827.0
127240.0
127210.0
129063.0
131643.0
133792.0
134778.0
134493.0
133376.0
132122.0
131341.0
131300.0
131876.0
132682.0
133289.0
133445.0
133168.0
132292.0
132196.0
132417.0
132815.0
133179.0
133342.0
133265.0
133038.0
132820.0
132746.0
132865.0
133120.0
133397.0
133582.0
133624.0
133547.0
133434.0
133365.0
133386.0
133497.0
133645.0
133772.0
133847.0
133874.0
134032.0
134191.0
134389.0
134594.0
134791.0
134981.0
135180.0
135410.0
135682.0
135993.0
136325.0
136653.0
136957.0
137232.0
137488.0
137736.0
137992.0
138253.0
138503.0
138708.0
138821.0
138806.0
138639.0
138308.0
137831.0
137237.0
136567.0
135864.0
135168.0
134510.0
133906.0
133369.0
132906.0
132523.0
132225.0
132012.0
131877.0
131818.0
131820.0
131869.0
131954.0
132062.0
132191.0
132337.0
132496.0
132664.0
132834.0
133293.0
133425.0
133549.0
133673.0
133795.0
133916.0
134034.0
134143.0
134239.0
134322.0
134394.0
134571.0
134571.0
134563.0
134555.0
134551.0
134555.0
134558.0
134555.0
134536.0
134495.0
134432.0
134353.0
134266.0
134185.0
134120.0
134076.0
134051.0
134035.0
134022.0
134011.0
133999.0
133986.0
133979.0
133979.0
133988.0
133994.0
133989.0
133967.0
133934.0
133899.0
133879.0
133879.0
133901.0
133934.0
133965.0
133979.0
133976.0
133959.0
133946.0
133956.0
133995.0
134073.0
134187.0
134336.0
134531.0
134773.0
135052.0
135338.0
135573.0
135693.0
135643.0
135412.0
135038.0
134604.0
134205.0
133898.0
133682.0
133494.0
133252.0
132907.0
132481.0
132071.0
131806.0
131767.0
131939.0
132188.0
132327.0
132205.0
131809.0
131284.0
130874.0
130796.0
131099.0
131609.0
132002.0
131976.0
131466.0
130791.0
130604.0
131663.0
134479.0
138997.0
144449.0
149523.0
152761.0
153079.0
150200.0
144795.0
138290.0
132376.0
128436.0
127089.0
128062.0
130388.0
132844.0
134435.0
134731.0
133925.0
132631.0
131553.0
131152.0
131491.0
132275.0
133058.0
133477.0
133410.0
132995.0
132527.0
132276.0
132365.0
132724.0
133150.0
133432.0
133461.0
133271.0
133004.0
132826.0
132839.0
133036.0
133322.0
133563.0
133671.0
133630.0
133382.0
133345.0
133415.0
133556.0
133706.0
133810.0
133849.0
133845.0
133844.0
133887.0
133998.0
134167.0
134367.0
134568.0
134763.0
134961.0
135184.0
135452.0
135770.0
136122.0
136485.0
136827.0
137132.0
137399.0
137642.0
137880.0
138126.0
138373.0
138594.0
138788.0
138681.0
138407.0
137970.0
137392.0
136720.0
135999.0
135277.0
134589.0
133961.0
133407.0
132930.0
132533.0
132213.0
131970.0
131803.0
131710.0
131686.0
131725.0
131817.0
131952.0
132116.0
132297.0
132479.0
132655.0
132822.0
132980.0
133134.0
133292.0
134118.0
134238.0
134328.0
134393.0
134488.0
134529.0
134568.0
134603.0
134629.0
134640.0
134637.0
134620.0
134594.0
134561.0
134522.0
134476.0
134426.0
134371.0
134315.0
134262.0
134213.0
134176.0
134147.0
134124.0
134105.0
134031.0
134034.0
134044.0
134070.0
134073.0
134078.0
134085.0
134096.0
134109.0
134119.0
134122.0
134122.0
134115.0
134108.0
134100.0
134091.0
134066.0
134049.0
134034.0
134028.0
134028.0
134043.0
134036.0
134031.0
134036.0
134054.0
134085.0
134128.0
134189.0
134285.0
134439.0
134667.0
134964.0
135287.0
135561.0
135701.0
135645.0
135382.0
134970.0
134508.0
134101.0
133805.0
133607.0
133433.0
133193.0
132840.0
132412.0
132021.0
131794.0
131800.0
131992.0
132222.0
132292.0
132079.0
131606.0
131057.0
130699.0
130726.0
131141.0
131712.0
132080.0
131961.0
131360.0
130683.0
130648.0
132021.0
135231.0
140082.0
145660.0
150563.0
153342.0
153045.0
149580.0
143813.0
137275.0
131647.0
128180.0
134526.0
134529.0
133562.0
132281.0
131341.0
131114.0
131570.0
132369.0
133070.0
133364.0
133198.0
132755.0
132330.0
132694.0
133085.0
133304.0
133279.0
133074.0
132838.0
132718.0
132784.0
133002.0
133267.0
133462.0
133526.0
133472.0
133370.0
133304.0
133333.0
133450.0
133610.0
133747.0
133823.0
133835.0
133822.0
133834.0
133906.0
134047.0
134242.0
134457.0
134668.0
134872.0
135080.0
135313.0
135587.0
135901.0
136233.0
136558.0
136856.0
137116.0
137344.0
137555.0
137772.0
138001.0
138234.0
138444.0
138594.0
138645.0
138567.0
138343.0
137972.0
137468.0
136858.0
136179.0
135470.0
134097.0
133492.0
132974.0
132554.0
132239.0
132023.0
131893.0
131830.0
131814.0
131832.0
131873.0
131942.0
132044.0
132187.0
132371.0
132584.0
132810.0
133032.0
133231.0
133401.0
133542.0
133666.0
133781.0
133897.0
134013.0
134122.0
134214.0
134284.0
134333.0
134370.0
134406.0
134448.0
134503.0
134561.0
134613.0
134639.0
134633.0
134595.0
134532.0
134464.0
134403.0
134358.0
134333.0
134320.0
134310.0
134292.0
134198.0
134175.0
134167.0
134172.0
134185.0
134200.0
134212.0
134217.0
134215.0
134196.0
134183.0
134163.0
134131.0
134091.0
134043.0
133992.0
133941.0
133900.0
133876.0
133874.0
133889.0
133915.0
133942.0
133960.0
133965.0
133958.0
133947.0
133945.0
133956.0
133981.0
134014.0
134052.0
134105.0
134189.0
134340.0
134576.0
134889.0
135236.0
135534.0
135696.0
135655.0
135401.0
134529.0
134110.0
133794.0
133567.0
133364.0
133109.0
132773.0
132398.0
132083.0
131941.0
132014.0
132236.0
132454.0
132493.0
132256.0
131799.0
131313.0
131036.0
131124.0
131535.0
132027.0
132260.0
132009.0
131355.0
130752.0
130916.0
132542.0
135944.0
140808.0
146157.0
150601.0
152791.0
151919.0
148051.0
142140.0
135731.0
130425.0
127353.0
126831.0
128342.0
130822.0
133117.0
134410.0
134465.0
133610.0
132470.0
131656.0
131493.0
131937.0
132659.0
133260.0
133472.0
133263.0
132820.0
132421.0
132280.0
132451.0
132825.0
133396.0
133211.0
132999.0
132894.0
132960.0
133163.0
133406.0
133581.0
133633.0
133571.0
133464.0
133392.0
133401.0
133493.0
133625.0
133746.0
133817.0
133842.0
133851.0
133894.0
134005.0
134188.0
134423.0
134679.0
134924.0
135154.0
135378.0
135616.0
135883.0
136183.0
136503.0
136814.0
137091.0
137320.0
137506.0
137663.0
137811.0
137963.0
138112.0
138237.0
138301.0
138268.0
138108.0
137814.0
137390.0
136867.0
136281.0
135670.0
135065.0
134488.0
133952.0
133467.0
133035.0
132669.0
132381.0
132180.0
132067.0
132035.0
132067.0
132240.0
132349.0
132459.0
132575.0
132702.0
132844.0
133000.0
133165.0
133329.0
133485.0
133625.0
133750.0
133862.0
133964.0
134059.0
134151.0
134234.0
134308.0
134368.0
134416.0
134530.0
134548.0
134561.0
134562.0
134551.0
134531.0
134502.0
134473.0
134445.0
134422.0
134400.0
134378.0
134351.0
134314.0
134266.0
134209.0
134151.0
134099.0
134058.0
134032.0
134021.0
134021.0
134025.0
134030.0
134030.0
134020.0
134003.0
133984.0
133970.0
133968.0
133976.0
133991.0
134005.0
134012.0
134005.0
133993.0
133985.0
133990.0
134014.0
134057.0
134114.0
134188.0
134916.0
135237.0
135542.0
135746.0
135775.0
135593.0
135230.0
134777.0
134338.0
133620.0
133441.0
133164.0
132779.0
132363.0
132041.0
131917.0
132011.0
132228.0
132390.0
132342.0
132030.0
131560.0
131257.0
131752.0
132201.0
132280.0
131860.0
131159.0
130752.0
131389.0
133661.0
137668.0
142830.0
147969.0
151647.0
152665.0
150532.0
145683.0
139368.0
133234.0
128761.0
126785.0
127261.0
129387.0
131977.0
133948.0
134701.0
134255.0
133116.0
131972.0
131364.0
131472.0
132110.0
132877.0
133384.0
133442.0
133116.0
132658.0
132343.0
132337.0
132622.0
133035.0
133372.0
133495.0
133389.0
133164.0
132970.0
132927.0
133707.0
133729.0
133659.0
133567.0
133528.0
133569.0
133674.0
133906.0
133939.0
134030.0
134173.0
134352.0
134544.0
134738.0
134942.0
135172.0
135441.0
135753.0
136094.0
136442.0
136773.0
137074.0
137345.0
137599.0
137848.0
138098.0
138344.0
138562.0
138715.0
138768.0
138692.0
137603.0
137006.0
136349.0
135667.0
134996.0
134360.0
133781.0
133267.0
132827.0
132465.0
132188.0
131994.0
131877.0
131830.0
131839.0
131891.0
131973.0
132075.0
132197.0
132338.0
132500.0
132681.0
132874.0
133068.0
133251.0
133414.0
133553.0
133668.0
133771.0
133871.0
133978.0
134097.0
134222.0
134345.0
134456.0
134544.0
134603.0
134636.0
134650.0
134651.0
134650.0
134649.0
134646.0
134639.0
134621.0
134591.0
134551.0
134500.0
134448.0
134397.0
134346.0
134302.0
134256.0
134214.0
134177.0
134147.0
134127.0
134114.0
134105.0
